SpectraSuite Data File
++++++++++++++++++++++++++++++++++++
Date: Mon May 06 13:55:01 CDT 2013
User: Students
Dark Spectrum Present: Yes
Reference Spectrum Present: Yes
Number of Sampled Component Spectra: 1
Spectrometers: USB4H00887
Integration Time (usec): 100000 (USB4H00887)
Spectra Averaged: 10 (USB4H00887)
Boxcar Smoothing: 5 (USB4H00887)
Correct for Electrical Dark: No (USB4H00887)
Strobe/Lamp Enabled: No (USB4H00887)
Correct for Detector Non-linearity: No (USB4H00887)
Correct for Stray Light: No (USB4H00887)
Number of Pixels in Processed Spectrum: 3648
>>>>>Begin Processed Spectral Data<<<<<
345.83	-3.48
346.05	-3.48
346.26	-3.48
346.48	0.20
346.70	13.11
346.92	-4.19
347.14	-4.69
347.35	-3.93
347.57	-4.75
347.79	-5.88
348.01	-7.37
348.23	-3.03
348.44	-3.18
348.66	-4.67
348.88	-2.49
349.10	-1.94
349.32	0.17
349.53	3.15
349.75	3.24
349.97	6.87
350.19	10.39
350.41	13.44
350.62	10.11
350.84	10.91
351.06	11.77
351.28	12.70
351.50	16.35
351.71	15.10
351.93	12.92
352.15	15.40
352.37	14.39
352.58	12.21
352.80	11.49
353.02	12.60
353.24	12.57
353.46	12.42
353.67	9.92
353.89	9.66
354.11	8.82
354.33	10.31
354.54	8.02
354.76	7.22
354.98	7.39
355.20	3.07
355.41	2.83
355.63	2.68
355.85	1.32
356.07	-1.43
356.28	-5.40
356.50	-5.62
356.72	-3.20
356.94	-1.95
357.15	-2.14
357.37	-1.88
357.59	4.24
357.81	5.06
358.02	2.29
358.24	5.59
358.46	9.64
358.68	13.00
358.89	13.50
359.11	9.05
359.33	6.98
359.55	5.12
359.76	4.77
359.98	2.31
360.20	3.17
360.42	5.08
360.63	0.17
360.85	-3.59
361.07	-5.47
361.29	-7.67
361.50	-5.44
361.72	-4.65
361.94	-5.38
362.15	-7.24
362.37	-10.22
362.59	-11.45
362.81	-8.75
363.02	-5.92
363.24	-5.34
363.46	-6.09
363.68	-6.74
363.89	-8.77
364.11	-6.20
364.33	-3.95
364.54	-2.81
364.76	-2.29
364.98	-1.90
365.20	-4.58
365.41	-8.60
365.63	-6.27
365.85	-4.10
366.06	-0.97
366.28	-2.36
366.50	-5.51
366.71	-4.69
366.93	-5.16
367.15	-2.40
367.37	-1.47
367.58	3.03
367.80	8.23
368.02	9.77
368.23	8.58
368.45	5.01
368.67	7.65
368.88	5.86
369.10	5.42
369.32	7.04
369.53	5.29
369.75	5.12
369.97	-1.69
370.19	-2.46
370.40	-4.19
370.62	-0.86
370.84	2.12
371.05	0.56
371.27	2.46
371.49	2.81
371.70	1.28
371.92	2.48
372.14	0.63
372.35	4.26
372.57	5.68
372.79	8.40
373.00	6.93
373.22	6.93
373.44	7.26
373.65	7.24
373.87	6.26
374.09	3.15
374.30	3.76
374.52	4.92
374.74	4.60
374.95	1.82
375.17	1.58
375.39	2.51
375.60	-1.82
375.82	-1.58
376.04	-0.41
376.25	-0.26
376.47	4.19
376.68	1.06
376.90	1.21
377.12	-0.19
377.33	-1.38
377.55	-3.63
377.77	-5.12
377.98	-3.05
378.20	-0.37
378.42	0.32
378.63	2.33
378.85	3.02
379.07	6.65
379.28	4.08
379.50	6.27
379.71	9.48
379.93	11.06
380.15	11.86
380.36	14.37
380.58	11.77
380.80	11.71
381.01	9.79
381.23	9.72
381.44	10.69
381.66	15.47
381.88	14.39
382.09	12.03
382.31	9.20
382.53	7.30
382.74	8.96
382.96	9.55
383.17	5.32
383.39	3.91
383.61	5.29
383.82	2.03
384.04	0.02
384.25	0.15
384.47	-0.84
384.69	-1.32
384.90	0.47
385.12	-0.65
385.33	-0.54
385.55	3.44
385.77	5.94
385.98	1.38
386.20	-0.26
386.41	-0.52
386.63	-1.04
386.85	2.76
387.06	1.19
387.28	-0.26
387.49	-0.73
387.71	-1.71
387.93	-5.46
388.14	-7.04
388.36	-7.28
388.57	-4.90
388.79	-6.16
389.01	-5.40
389.22	-6.05
389.44	-1.81
389.65	-1.79
389.87	1.51
390.08	2.51
390.30	6.29
390.52	6.44
390.73	9.76
390.95	9.68
391.16	9.96
391.38	7.09
391.59	6.03
391.81	6.87
392.03	5.31
392.24	0.35
392.46	-1.64
392.67	-2.03
392.89	-0.78
393.10	-1.66
393.32	-1.82
393.53	-1.19
393.75	0.99
393.97	1.23
394.18	0.04
394.40	2.23
394.61	3.56
394.83	4.86
395.04	3.30
395.26	2.63
395.47	3.59
395.69	3.93
395.91	3.46
396.12	3.56
396.34	3.24
396.55	3.37
396.77	4.06
396.98	4.10
397.20	5.53
397.41	7.65
397.63	6.05
397.84	3.69
398.06	2.55
398.27	4.65
398.49	5.10
398.71	3.24
398.92	2.96
399.14	2.05
399.35	2.70
399.57	-0.86
399.78	-2.89
400.00	-0.86
400.21	-2.25
400.43	-1.92
400.64	-2.98
400.86	-2.90
401.07	0.74
401.29	0.09
401.50	-3.20
401.72	-7.91
401.93	-5.44
402.15	-5.40
402.36	-7.19
402.58	-2.72
402.79	-3.87
403.01	-4.86
403.22	-4.49
403.44	-3.87
403.65	-4.06
403.87	0.99
404.08	7.88
404.30	6.05
404.51	4.75
404.73	7.26
404.94	5.72
405.16	7.45
405.37	9.25
405.59	11.30
405.80	6.01
406.02	6.70
406.23	4.82
406.45	-1.28
406.66	0.88
406.88	0.78
407.09	-2.33
407.31	-0.65
407.52	-4.47
407.74	-3.46
407.95	-5.32
408.17	-2.85
408.38	-2.90
408.60	0.19
408.81	2.77
409.03	2.12
409.24	0.54
409.45	2.79
409.67	2.18
409.88	7.09
410.10	4.78
410.31	5.88
410.53	3.57
410.74	3.41
410.96	0.48
411.17	-0.15
411.39	1.01
411.60	4.26
411.82	5.05
412.03	2.25
412.24	0.89
412.46	1.47
412.67	-1.27
412.89	-1.06
413.10	-1.28
413.32	-0.95
413.53	-2.76
413.75	-6.81
413.96	-8.84
414.17	-8.60
414.39	-7.41
414.60	-10.17
414.82	-13.80
415.03	-12.83
415.25	-8.01
415.46	-4.36
415.68	-4.41
415.89	2.72
416.10	4.15
416.32	5.59
416.53	5.05
416.75	5.98
416.96	7.28
417.18	9.22
417.39	8.43
417.60	6.50
417.82	3.59
418.03	3.72
418.25	0.99
418.46	4.36
418.67	3.98
418.89	4.58
419.10	3.46
419.32	4.04
419.53	3.89
419.75	6.96
419.96	5.81
420.17	3.26
420.39	4.86
420.60	2.63
420.82	1.34
421.03	1.02
421.24	-2.89
421.46	-3.67
421.67	-2.70
421.89	0.13
422.10	-3.13
422.31	-1.95
422.53	-1.41
422.74	-0.22
422.96	1.94
423.17	1.10
423.38	2.74
423.60	3.13
423.81	1.64
424.03	2.66
424.24	-0.88
424.45	-0.09
424.67	-1.32
424.88	0.80
425.09	-0.22
425.31	-4.02
425.52	-4.06
425.74	-5.18
425.95	-2.33
426.16	1.43
426.38	-0.47
426.59	3.84
426.80	3.65
427.02	3.46
427.23	2.20
427.45	0.99
427.66	3.82
427.87	6.09
428.09	8.58
428.30	10.15
428.51	10.56
428.73	11.65
428.94	9.48
429.15	8.40
429.37	10.02
429.58	11.86
429.79	9.94
430.01	7.97
430.22	6.46
430.44	4.58
430.65	3.59
430.86	3.76
431.08	3.39
431.29	2.09
431.50	3.48
431.72	0.89
431.93	0.11
432.14	1.34
432.36	2.35
432.57	1.94
432.78	1.97
433.00	-1.41
433.21	0.00
433.42	0.00
433.64	2.27
433.85	5.51
434.06	6.98
434.28	5.08
434.49	5.49
434.70	5.06
434.92	4.34
435.13	4.38
435.34	6.46
435.56	2.40
435.77	3.28
435.98	1.62
436.20	-1.55
436.41	0.09
436.62	1.14
436.83	0.43
437.05	1.27
437.26	3.54
437.47	2.23
437.69	2.66
437.90	4.71
438.11	7.06
438.33	5.94
438.54	4.47
438.75	4.41
438.97	2.83
439.18	1.56
439.39	1.30
439.60	1.19
439.82	2.74
440.03	1.12
440.24	1.38
440.46	-1.58
440.67	-0.60
440.88	1.69
441.10	2.92
441.31	6.61
441.52	10.18
441.73	9.96
441.95	9.53
442.16	6.67
442.37	6.13
442.58	5.62
442.80	4.00
443.01	2.59
443.22	1.38
443.44	-0.91
443.65	-2.12
443.86	-2.33
444.07	-2.05
444.29	-2.53
444.50	0.76
444.71	4.08
444.92	1.36
445.14	0.74
445.35	1.62
445.56	2.12
445.78	2.46
445.99	1.69
446.20	0.60
446.41	0.07
446.63	0.67
446.84	-0.45
447.05	-3.00
447.26	-1.04
447.48	0.80
447.69	1.28
447.90	1.79
448.11	3.11
448.33	-0.04
448.54	0.35
448.75	0.73
448.96	-2.05
449.18	-0.54
449.39	0.58
449.60	1.71
449.81	0.95
450.03	-0.43
450.24	-1.28
450.45	-3.03
450.66	0.32
450.87	-2.57
451.09	-5.18
451.30	-3.70
451.51	-5.79
451.72	-6.03
451.94	-9.48
452.15	-8.25
452.36	-7.67
452.57	-9.29
452.78	-10.71
453.00	-8.82
453.21	-9.96
453.42	-6.87
453.63	-6.03
453.85	-4.77
454.06	-5.68
454.27	-4.65
454.48	-7.41
454.69	-6.50
454.91	-1.71
455.12	-0.06
455.33	-2.16
455.54	1.38
455.75	3.13
455.97	0.20
456.18	-0.32
456.39	-1.53
456.60	-1.06
456.81	0.17
457.03	1.79
457.24	-1.97
457.45	-2.22
457.66	-0.06
457.87	0.58
458.09	-0.39
458.30	0.19
458.51	0.41
458.72	0.82
458.93	-0.58
459.15	0.58
459.36	-1.45
459.57	0.22
459.78	-0.74
459.99	-5.34
460.20	-7.45
460.42	-8.75
460.63	-5.55
460.84	-6.76
461.05	-4.23
461.26	-3.61
461.47	-1.27
461.69	-0.69
461.90	-2.83
462.11	-0.22
462.32	2.10
462.53	3.69
462.74	6.61
462.96	4.02
463.17	5.99
463.38	2.94
463.59	3.65
463.80	1.92
464.01	1.43
464.23	2.81
464.44	-0.24
464.65	0.00
464.86	-1.02
465.07	-4.90
465.28	-5.14
465.49	-1.60
465.71	1.82
465.92	4.08
466.13	3.26
466.34	4.04
466.55	4.49
466.76	4.71
466.97	4.02
467.19	0.71
467.40	2.74
467.61	3.69
467.82	-0.06
468.03	1.95
468.24	-1.23
468.45	0.09
468.66	-1.92
468.88	-3.11
469.09	-2.74
469.30	1.25
469.51	4.21
469.72	3.50
469.93	5.79
470.14	5.81
470.35	2.03
470.57	1.55
470.78	0.24
470.99	0.99
471.20	1.01
471.41	-1.40
471.62	-4.06
471.83	-3.97
472.04	-5.34
472.25	-7.43
472.47	-9.83
472.68	-9.59
472.89	-8.08
473.10	-8.36
473.31	-6.50
473.52	-6.98
473.73	-3.46
473.94	-3.69
474.15	-5.64
474.36	-4.19
474.57	-3.43
474.79	-1.14
475.00	0.80
475.21	1.12
475.42	1.94
475.63	1.60
475.84	2.16
476.05	0.07
476.26	-1.75
476.47	-0.88
476.68	-0.07
476.89	0.54
477.10	2.44
477.32	4.11
477.53	4.80
477.74	2.49
477.95	0.37
478.16	1.56
478.37	2.68
478.58	2.77
478.79	4.30
479.00	4.21
479.21	1.15
479.42	-3.74
479.63	-9.14
479.84	-8.47
480.05	-6.96
480.26	-3.61
480.47	-5.47
480.69	-6.37
480.90	-5.25
481.11	-6.26
481.32	-4.23
481.53	-3.20
481.74	0.17
481.95	3.76
482.16	1.66
482.37	1.82
482.58	1.62
482.79	2.29
483.00	7.04
483.21	8.02
483.42	9.83
483.63	5.08
483.84	4.64
484.05	5.75
484.26	3.82
484.47	7.47
484.68	6.81
484.89	6.67
485.10	6.48
485.31	3.05
485.52	2.36
485.73	1.32
485.94	3.89
486.15	5.38
486.37	4.58
486.58	3.11
486.79	1.19
487.00	0.86
487.21	1.19
487.42	3.84
487.63	4.10
487.84	5.08
488.05	4.60
488.26	3.93
488.47	2.23
488.68	-0.09
488.89	0.65
489.10	-2.23
489.31	1.06
489.52	-3.02
489.73	-2.29
489.94	-0.86
490.15	-1.30
490.36	-0.19
490.57	-2.48
490.78	0.04
490.99	0.11
491.20	0.82
491.41	2.27
491.62	-0.76
491.83	-0.54
492.04	-2.87
492.25	-3.97
492.45	-4.58
492.66	-3.70
492.87	-2.20
493.08	-1.55
493.29	-1.95
493.50	-3.54
493.71	-2.76
493.92	1.27
494.13	4.62
494.34	3.87
494.55	3.78
494.76	3.22
494.97	1.82
495.18	4.00
495.39	0.84
495.60	4.64
495.81	8.58
496.02	7.52
496.23	2.64
496.44	2.87
496.65	0.61
496.86	4.21
497.07	6.40
497.28	4.95
497.49	4.60
497.70	6.33
497.91	3.78
498.12	-1.30
498.32	3.07
498.53	6.91
498.74	5.25
498.95	9.22
499.16	7.65
499.37	7.19
499.58	11.11
499.79	9.09
500.00	8.23
500.21	6.40
500.42	7.06
500.63	6.11
500.84	3.84
501.05	4.10
501.26	1.79
501.46	1.32
501.67	-0.82
501.88	-3.93
502.09	-1.19
502.30	-2.09
502.51	-0.09
502.72	1.82
502.93	-1.84
503.14	-4.34
503.35	-6.16
503.56	-4.39
503.77	-6.03
503.97	-3.84
504.18	-2.46
504.39	-4.56
504.60	-2.16
504.81	-0.19
505.02	0.11
505.23	-2.03
505.44	1.40
505.65	1.66
505.86	0.67
506.07	-4.11
506.27	-2.57
506.48	-5.90
506.69	-4.95
506.90	-6.27
507.11	-8.12
507.32	-5.03
507.53	1.04
507.74	1.19
507.95	2.66
508.15	6.07
508.36	7.73
508.57	6.33
508.78	10.89
508.99	9.53
509.20	8.34
509.41	6.98
509.62	4.19
509.82	-0.13
510.03	-2.77
510.24	-2.23
510.45	-3.46
510.66	-0.37
510.87	-2.09
511.08	-4.60
511.29	-4.77
511.49	-5.18
511.70	-3.15
511.91	-0.06
512.12	3.18
512.33	7.73
512.54	6.33
512.75	4.60
512.95	7.22
513.16	7.91
513.37	9.03
513.58	8.64
513.79	13.57
514.00	14.26
514.20	10.31
514.41	8.86
514.62	5.98
514.83	7.63
515.04	9.05
515.25	6.20
515.46	8.36
515.66	8.21
515.87	11.08
516.08	8.08
516.29	9.38
516.50	10.11
516.71	10.85
516.91	12.73
517.12	13.31
517.33	12.57
517.54	13.89
517.75	12.05
517.95	14.39
518.16	11.75
518.37	14.69
518.58	13.39
518.79	14.32
519.00	14.84
519.20	14.52
519.41	13.16
519.62	14.71
519.83	16.07
520.04	15.29
520.24	14.13
520.45	15.77
520.66	13.07
520.87	14.30
521.08	13.37
521.28	13.05
521.49	13.63
521.70	16.46
521.91	17.07
522.12	17.67
522.32	18.21
522.53	18.25
522.74	17.95
522.95	17.54
523.16	17.17
523.36	18.58
523.57	16.64
523.78	14.13
523.99	14.13
524.20	12.66
524.40	11.71
524.61	12.55
524.82	11.39
525.03	12.31
525.23	15.53
525.44	16.61
525.65	17.48
525.86	19.87
526.06	24.30
526.27	24.04
526.48	23.38
526.69	22.06
526.90	24.93
527.10	26.66
527.31	26.75
527.52	28.09
527.73	27.63
527.93	27.57
528.14	28.24
528.35	26.01
528.56	28.00
528.76	30.55
528.97	32.17
529.18	31.56
529.39	32.82
529.59	35.19
529.80	32.86
530.01	31.30
530.22	33.77
530.42	33.36
530.63	34.50
530.84	34.29
531.05	35.15
531.25	33.98
531.46	33.21
531.67	32.86
531.88	29.34
532.08	31.04
532.29	34.80
532.50	30.85
532.70	35.71
532.91	35.88
533.12	33.27
533.33	30.78
533.53	31.24
533.74	28.86
533.95	30.18
534.15	34.20
534.36	31.78
534.57	28.39
534.78	30.01
534.98	26.59
535.19	27.82
535.40	26.92
535.60	27.52
535.81	30.85
536.02	32.71
536.23	29.12
536.43	29.62
536.64	31.18
536.85	35.23
537.05	36.94
537.26	38.04
537.47	37.78
537.67	41.39
537.88	44.01
538.09	42.21
538.30	44.35
538.50	47.48
538.71	47.25
538.92	50.83
539.12	49.73
539.33	50.73
539.54	48.87
539.74	48.39
539.95	44.78
540.16	42.04
540.36	42.30
540.57	41.35
540.78	39.73
540.98	38.17
541.19	37.05
541.40	36.71
541.60	37.63
541.81	40.92
542.02	39.53
542.22	44.12
542.43	45.35
542.64	44.94
542.84	46.94
543.05	50.68
543.26	52.61
543.46	51.22
543.67	53.58
543.88	50.47
544.08	51.68
544.29	54.74
544.50	54.70
544.70	56.26
544.91	61.87
545.12	64.77
545.32	63.64
545.53	65.00
545.74	68.68
545.94	67.75
546.15	70.41
546.35	70.47
546.56	70.47
546.77	70.73
546.97	69.58
547.18	67.29
547.39	63.11
547.59	65.16
547.80	65.80
548.01	68.27
548.21	70.26
548.42	72.16
548.62	72.05
548.83	74.70
549.04	74.29
549.24	77.69
549.45	74.92
549.65	77.66
549.86	77.56
550.07	78.42
550.27	75.44
550.48	74.40
550.69	76.13
550.89	77.67
551.10	78.94
551.30	82.12
551.51	84.17
551.72	90.04
551.92	89.68
552.13	91.28
552.33	92.55
552.54	92.57
552.75	94.19
552.95	91.04
553.16	92.21
553.36	90.97
553.57	93.65
553.78	92.98
553.98	95.31
554.19	99.62
554.39	101.00
554.60	101.67
554.80	101.69
555.01	102.47
555.22	105.88
555.42	107.07
555.63	107.35
555.83	105.82
556.04	110.26
556.25	108.91
556.45	110.98
556.66	114.76
556.86	113.49
557.07	116.53
557.27	119.47
557.48	123.06
557.68	124.14
557.89	127.81
558.10	132.50
558.30	131.22
558.51	135.78
558.71	134.29
558.92	134.29
559.12	137.44
559.33	140.36
559.54	139.26
559.74	141.70
559.95	140.70
560.15	142.46
560.36	142.78
560.56	145.42
560.77	147.27
560.97	148.07
561.18	147.77
561.38	149.99
561.59	155.24
561.79	156.76
562.00	154.85
562.21	159.02
562.41	163.45
562.62	165.35
562.82	168.18
563.03	166.16
563.23	169.03
563.44	172.07
563.64	173.46
563.85	173.33
564.05	177.17
564.26	177.88
564.46	182.16
564.67	183.11
564.87	182.57
565.08	183.39
565.28	184.08
565.49	187.00
565.69	188.08
565.90	189.88
566.10	187.82
566.31	190.54
566.51	196.49
566.72	198.00
566.92	199.14
567.13	203.16
567.33	204.59
567.54	208.86
567.74	211.61
567.95	215.11
568.15	221.42
568.36	225.89
568.56	225.72
568.77	225.33
568.97	226.26
569.18	229.30
569.38	231.59
569.59	233.17
569.79	232.09
570.00	233.38
570.20	232.71
570.41	231.98
570.61	232.97
570.82	236.52
571.02	240.30
571.23	239.59
571.43	240.47
571.64	243.35
571.84	244.81
572.05	246.91
572.25	250.82
572.45	255.64
572.66	259.20
572.86	263.52
573.07	265.23
573.27	268.60
573.48	275.23
573.68	277.00
573.89	280.40
574.09	287.05
574.30	293.18
574.50	296.69
574.70	298.89
574.91	301.54
575.11	305.18
575.32	307.55
575.52	307.88
575.73	309.73
575.93	313.04
576.14	312.07
576.34	315.52
576.54	318.72
576.75	320.58
576.95	323.36
577.16	325.78
577.36	327.04
577.57	331.38
577.77	336.50
577.97	341.95
578.18	345.64
578.38	351.43
578.59	350.84
578.79	355.38
579.00	357.91
579.20	364.61
579.40	367.70
579.61	372.36
579.81	375.60
580.02	377.18
580.22	380.75
580.42	385.20
580.63	385.74
580.83	386.73
581.04	387.68
581.24	390.70
581.45	389.67
581.65	389.78
581.85	391.22
582.06	392.89
582.26	394.83
582.47	395.13
582.67	391.81
582.87	394.83
583.08	396.93
583.28	399.80
583.48	398.52
583.69	398.87
583.89	402.05
584.10	400.56
584.30	399.32
584.50	400.58
584.71	398.59
584.91	400.19
585.12	404.34
585.32	405.11
585.52	406.34
585.73	410.17
585.93	411.85
586.13	408.85
586.34	409.84
586.54	411.51
586.75	408.20
586.95	409.39
587.15	409.95
587.36	406.99
587.56	408.03
587.76	406.22
587.97	404.23
588.17	403.65
588.37	404.79
588.58	404.12
588.78	402.87
588.98	408.33
589.19	408.51
589.39	409.04
589.60	406.88
589.80	405.81
590.00	403.10
590.21	399.91
590.41	395.05
590.61	394.03
590.82	390.40
591.02	389.34
591.22	382.34
591.43	378.52
591.63	375.69
591.83	372.34
592.04	371.35
592.24	368.50
592.44	364.61
592.65	361.99
592.85	359.20
593.05	359.62
593.26	354.65
593.46	354.63
593.66	349.40
593.86	347.47
594.07	346.37
594.27	339.68
594.47	348.68
594.68	349.64
594.88	346.70
595.08	343.00
595.29	339.29
595.49	339.74
595.69	333.09
595.90	332.50
596.10	326.99
596.30	320.54
596.50	318.72
596.71	304.94
596.91	298.89
597.11	296.53
597.32	295.08
597.52	290.23
597.72	286.72
597.93	282.02
598.13	277.07
598.33	275.90
598.53	274.80
598.74	274.78
598.94	273.65
599.14	270.33
599.35	268.40
599.55	262.25
599.75	261.40
599.95	257.34
600.16	255.81
600.36	253.97
600.56	249.74
600.76	247.30
600.97	242.57
601.17	233.08
601.37	229.65
601.58	227.08
601.78	225.31
601.98	222.45
602.18	217.53
602.39	216.14
602.59	209.92
602.79	204.54
602.99	199.32
603.20	194.11
603.40	191.15
603.60	186.98
603.80	184.69
604.01	182.29
604.21	177.37
604.41	176.74
604.61	175.25
604.82	173.00
605.02	170.52
605.22	168.12
605.42	164.84
605.62	163.32
605.83	160.90
606.03	156.11
606.23	150.75
606.43	146.67
606.64	142.99
606.84	139.76
607.04	139.06
607.24	139.49
607.45	139.34
607.65	138.50
607.85	137.46
608.05	140.66
608.25	138.31
608.46	138.09
608.66	138.00
608.86	137.51
609.06	134.01
609.26	131.44
609.47	128.26
609.67	128.89
609.87	126.53
610.07	123.25
610.28	118.26
610.48	116.86
610.68	117.24
610.88	117.74
611.08	114.74
611.29	110.57
611.49	106.44
611.69	104.35
611.89	98.92
612.09	95.45
612.29	95.27
612.50	92.42
612.70	91.73
612.90	86.74
613.10	82.94
613.30	83.82
613.51	87.75
613.71	89.50
613.91	87.02
614.11	83.67
614.31	83.52
614.51	85.23
614.72	83.61
614.92	83.61
615.12	82.37
615.32	80.84
615.52	76.74
615.72	71.88
615.93	68.74
616.13	69.95
616.33	68.33
616.53	68.29
616.73	64.10
616.93	63.21
617.14	60.19
617.34	61.49
617.54	60.40
617.74	58.89
617.94	59.50
618.14	61.01
618.34	56.43
618.55	57.70
618.75	55.97
618.95	52.71
619.15	51.12
619.35	49.39
619.55	46.64
619.75	48.80
619.96	49.52
620.16	48.59
620.36	45.33
620.56	48.82
620.76	46.08
620.96	46.92
621.16	46.86
621.36	50.25
621.57	49.06
621.77	48.74
621.97	45.82
622.17	41.35
622.37	41.83
622.57	43.85
622.77	41.09
622.97	41.61
623.18	37.18
623.38	37.53
623.58	33.21
623.78	33.51
623.98	35.13
624.18	32.84
624.38	37.87
624.58	36.83
624.78	37.33
624.98	38.61
625.19	38.63
625.39	42.17
625.59	39.95
625.79	43.90
625.99	42.78
626.19	39.28
626.39	38.48
626.59	32.64
626.79	34.52
626.99	29.66
627.19	29.88
627.40	29.06
627.60	24.37
627.80	27.31
628.00	22.49
628.20	23.12
628.40	26.75
628.60	25.54
628.80	29.47
629.00	25.80
629.20	27.83
629.40	25.60
629.60	24.31
629.80	24.93
630.00	26.18
630.20	26.03
630.41	28.95
630.61	26.05
630.81	28.22
631.01	29.71
631.21	31.87
631.41	32.08
631.61	33.57
631.81	32.90
632.01	35.73
632.21	33.81
632.41	35.17
632.61	34.28
632.81	34.46
633.01	37.03
633.21	31.11
633.41	28.82
633.61	28.73
633.81	25.02
634.01	28.34
634.21	26.98
634.41	29.51
634.61	26.64
634.81	23.53
635.01	24.46
635.22	21.37
635.42	23.24
635.62	25.86
635.82	24.95
636.02	28.45
636.22	27.22
636.42	27.72
636.62	25.75
636.82	28.32
637.02	26.62
637.22	24.22
637.42	25.75
637.62	26.44
637.82	19.92
638.02	20.29
638.22	17.58
638.42	18.23
638.62	17.41
638.82	17.02
639.02	17.31
639.22	19.40
639.42	21.21
639.62	18.41
639.82	15.92
640.02	19.40
640.22	17.13
640.42	15.90
640.62	15.83
640.82	13.76
641.02	15.40
641.22	15.43
641.42	15.15
641.61	16.98
641.81	21.91
642.01	25.04
642.21	24.69
642.41	23.05
642.61	25.10
642.81	23.51
643.01	25.23
643.21	23.20
643.41	22.17
643.61	24.97
643.81	22.79
644.01	17.71
644.21	15.77
644.41	14.58
644.61	17.97
644.81	17.82
645.01	18.80
645.21	19.98
645.41	17.48
645.61	18.86
645.81	17.20
646.01	14.99
646.21	15.02
646.40	16.92
646.60	19.01
646.80	19.23
647.00	21.63
647.20	19.16
647.40	19.60
647.60	21.02
647.80	16.89
648.00	17.22
648.20	18.80
648.40	20.78
648.60	19.16
648.80	19.21
649.00	18.54
649.20	16.42
649.39	18.92
649.59	17.35
649.79	17.00
649.99	19.18
650.19	17.80
650.39	20.81
650.59	18.25
650.79	19.12
650.99	18.26
651.19	17.41
651.39	19.31
651.58	18.62
651.78	18.38
651.98	18.41
652.18	16.94
652.38	16.10
652.58	15.10
652.78	18.43
652.98	17.87
653.18	17.33
653.38	16.68
653.57	13.85
653.77	13.81
653.97	13.29
654.17	11.75
654.37	14.71
654.57	16.57
654.77	15.19
654.97	13.00
655.16	14.28
655.36	17.39
655.56	19.57
655.76	22.01
655.96	24.67
656.16	24.80
656.36	25.47
656.56	24.48
656.75	24.52
656.95	24.95
657.15	27.14
657.35	23.91
657.55	22.55
657.75	21.91
657.95	19.40
658.14	17.11
658.34	17.84
658.54	20.09
658.74	19.49
658.94	17.13
659.14	16.85
659.34	16.38
659.53	16.66
659.73	15.55
659.93	16.09
660.13	18.38
660.33	19.70
660.53	20.41
660.72	16.48
660.92	17.30
661.12	18.45
661.32	19.33
661.52	17.50
661.72	19.01
661.91	19.16
662.11	20.22
662.31	16.66
662.51	15.40
662.71	15.40
662.90	18.97
663.10	21.75
663.30	20.26
663.50	18.34
663.70	16.66
663.90	17.56
664.09	16.03
664.29	14.76
664.49	19.01
664.69	18.34
664.89	14.69
665.08	14.48
665.28	12.05
665.48	13.09
665.68	15.62
665.88	19.12
666.07	15.66
666.27	15.32
666.47	14.34
666.67	11.30
666.87	12.77
667.06	17.31
667.26	16.77
667.46	13.14
667.66	14.24
667.85	11.79
668.05	9.68
668.25	10.15
668.45	12.59
668.65	15.58
668.84	18.47
669.04	15.99
669.24	16.38
669.44	13.68
669.63	17.30
669.83	16.85
670.03	15.79
670.23	17.50
670.42	20.20
670.62	18.75
670.82	17.63
671.02	16.33
671.22	18.23
671.41	15.34
671.61	19.57
671.81	19.34
672.01	20.46
672.20	19.34
672.40	17.56
672.60	16.10
672.80	18.79
672.99	22.81
673.19	22.10
673.39	22.86
673.58	25.34
673.78	22.38
673.98	20.42
674.18	18.69
674.37	20.50
674.57	20.07
674.77	20.22
674.97	15.12
675.16	10.22
675.36	8.94
675.56	5.90
675.75	2.98
675.95	2.61
676.15	4.65
676.35	6.48
676.54	7.60
676.74	9.14
676.94	6.94
677.13	11.92
677.33	11.17
677.53	11.64
677.73	11.99
677.92	12.98
678.12	15.68
678.32	17.31
678.51	18.92
678.71	18.82
678.91	17.87
679.11	21.32
679.30	20.24
679.50	20.78
679.70	21.75
679.89	21.32
680.09	21.09
680.29	20.20
680.48	18.45
680.68	14.35
680.88	14.41
681.07	13.22
681.27	14.00
681.47	10.97
681.66	12.23
681.86	12.25
682.06	15.51
682.25	17.43
682.45	17.95
682.65	18.39
682.84	19.05
683.04	19.38
683.24	19.87
683.43	17.56
683.63	18.25
683.83	18.51
684.02	19.14
684.22	18.23
684.42	18.51
684.61	18.28
684.81	18.56
685.01	17.58
685.20	18.75
685.40	20.81
685.60	22.32
685.79	25.69
685.99	24.41
686.19	23.24
686.38	23.98
686.58	25.25
686.77	26.14
686.97	27.50
687.17	27.11
687.36	24.82
687.56	22.02
687.76	19.51
687.95	15.12
688.15	14.08
688.34	15.51
688.54	14.28
688.74	10.04
688.93	8.06
689.13	6.33
689.33	7.15
689.52	7.99
689.72	10.97
689.91	12.19
690.11	11.58
690.31	14.06
690.50	15.34
690.70	15.51
690.89	16.68
691.09	16.63
691.29	15.32
691.48	17.87
691.68	19.40
691.87	18.77
692.07	19.49
692.27	20.50
692.46	17.02
692.66	15.30
692.85	14.21
693.05	14.69
693.25	14.75
693.44	14.17
693.64	15.17
693.83	10.33
694.03	8.14
694.22	8.10
694.42	10.87
694.62	10.24
694.81	10.30
695.01	11.99
695.20	10.43
695.40	11.52
695.59	13.18
695.79	11.82
695.99	12.42
696.18	12.46
696.38	11.60
696.57	11.99
696.77	16.01
696.96	13.44
697.16	12.14
697.36	11.73
697.55	10.61
697.75	12.64
697.94	8.49
698.14	9.90
698.33	10.18
698.53	10.91
698.72	11.79
698.92	12.81
699.11	15.49
699.31	16.59
699.51	21.95
699.70	22.14
699.90	19.64
700.09	21.32
700.29	23.10
700.48	23.09
700.68	23.61
700.87	24.84
701.07	22.55
701.26	22.73
701.46	21.32
701.65	18.47
701.85	20.54
702.04	19.90
702.24	20.93
702.43	18.52
702.63	21.95
702.82	21.19
703.02	14.08
703.21	13.81
703.41	9.42
703.60	11.82
703.80	11.60
703.99	10.74
704.19	8.99
704.38	8.90
704.58	10.89
704.77	7.39
704.97	8.62
705.16	13.94
705.36	12.49
705.55	15.86
705.75	12.16
705.94	11.15
706.14	14.43
706.33	17.04
706.53	16.77
706.72	16.23
706.92	15.75
707.11	14.91
707.31	13.22
707.50	15.83
707.70	14.47
707.89	16.57
708.09	18.62
708.28	15.88
708.48	15.42
708.67	17.05
708.86	17.43
709.06	20.74
709.25	22.86
709.45	21.91
709.64	20.87
709.84	22.75
710.03	20.55
710.23	18.69
710.42	18.28
710.62	15.97
710.81	13.61
711.00	13.61
711.20	11.51
711.39	12.16
711.59	15.99
711.78	14.37
711.98	16.10
712.17	19.47
712.37	19.47
712.56	19.16
712.75	19.38
712.95	20.50
713.14	21.41
713.34	22.51
713.53	17.72
713.73	13.98
713.92	18.95
714.11	16.50
714.31	15.79
714.50	14.48
714.70	13.96
714.89	18.06
715.08	16.31
715.28	14.15
715.47	16.09
715.67	17.80
715.86	16.25
716.06	12.83
716.25	9.77
716.44	7.15
716.64	8.82
716.83	9.98
717.03	9.01
717.22	12.51
717.41	14.02
717.61	11.79
717.80	12.23
717.99	15.92
718.19	14.75
718.38	20.70
718.58	22.38
718.77	22.45
718.96	18.21
719.16	19.12
719.35	17.33
719.55	17.39
719.74	18.56
719.93	16.70
720.13	15.36
720.32	15.23
720.51	11.25
720.71	10.39
720.90	10.85
721.10	13.80
721.29	11.49
721.48	11.97
721.68	8.55
721.87	8.42
722.06	11.97
722.26	9.07
722.45	11.80
722.64	9.10
722.84	10.00
723.03	6.80
723.22	8.04
723.42	7.09
723.61	5.32
723.80	7.17
724.00	6.52
724.19	4.58
724.38	9.77
724.58	11.73
724.77	16.25
724.96	17.22
725.16	19.75
725.35	18.86
725.54	20.74
725.74	23.22
725.93	23.70
726.12	23.05
726.32	24.26
726.51	23.78
726.70	19.81
726.90	19.10
727.09	20.46
727.28	20.39
727.48	20.87
727.67	20.44
727.86	22.73
728.06	22.29
728.25	20.68
728.44	22.25
728.64	19.64
728.83	21.47
729.02	20.72
729.21	16.57
729.41	16.85
729.60	15.42
729.79	15.99
729.99	12.85
730.18	13.18
730.37	16.25
730.56	14.80
730.76	15.36
730.95	14.63
731.14	16.01
731.34	14.84
731.53	16.55
731.72	17.20
731.91	17.54
732.11	18.51
732.30	18.99
732.49	15.14
732.69	15.79
732.88	17.97
733.07	16.59
733.26	15.02
733.46	14.58
733.65	14.17
733.84	14.48
734.03	13.67
734.23	13.96
734.42	11.65
734.61	13.80
734.80	11.88
735.00	9.79
735.19	10.07
735.38	11.02
735.57	14.32
735.77	13.68
735.96	12.66
736.15	12.19
736.34	11.13
736.54	12.25
736.73	14.19
736.92	10.74
737.11	13.03
737.31	16.23
737.50	14.86
737.69	13.54
737.88	12.23
738.07	12.70
738.27	14.17
738.46	14.28
738.65	14.86
738.84	11.79
739.04	13.94
739.23	12.12
739.42	7.84
739.61	10.43
739.80	11.25
740.00	13.35
740.19	11.23
740.38	8.62
740.57	8.12
740.76	9.63
740.96	11.34
741.15	12.42
741.34	11.90
741.53	14.60
741.72	12.72
741.92	12.47
742.11	11.99
742.30	12.64
742.49	14.67
742.68	13.35
742.88	11.82
743.07	10.00
743.26	12.14
743.45	13.18
743.64	14.08
743.84	14.76
744.03	14.63
744.22	14.09
744.41	13.76
744.60	9.76
744.79	9.22
744.99	8.77
745.18	7.39
745.37	6.85
745.56	6.18
745.75	3.43
745.94	4.88
746.14	5.94
746.33	5.64
746.52	7.75
746.71	8.45
746.90	10.41
747.09	11.52
747.28	14.21
747.48	13.61
747.67	14.60
747.86	13.13
748.05	9.63
748.24	8.06
748.43	6.05
748.62	7.71
748.82	8.14
749.01	7.93
749.20	7.89
749.39	8.28
749.58	7.34
749.77	4.17
749.96	6.55
750.16	7.35
750.35	8.47
750.54	11.73
750.73	10.57
750.92	16.16
751.11	15.79
751.30	12.60
751.49	11.32
751.68	9.22
751.88	13.26
752.07	13.24
752.26	14.13
752.45	13.80
752.64	12.51
752.83	11.95
753.02	7.95
753.21	7.65
753.40	11.26
753.60	14.89
753.79	16.20
753.98	12.55
754.17	12.66
754.36	14.52
754.55	12.59
754.74	10.18
754.93	12.21
755.12	11.49
755.31	12.34
755.50	10.57
755.70	8.28
755.89	10.09
756.08	11.62
756.27	9.55
756.46	8.81
756.65	11.84
756.84	12.55
757.03	10.37
757.22	11.21
757.41	9.51
757.60	10.89
757.79	11.17
757.98	8.96
758.17	10.50
758.36	12.36
758.56	10.72
758.75	11.34
758.94	11.92
759.13	15.01
759.32	15.14
759.51	16.38
759.70	13.31
759.89	12.68
760.08	14.11
760.27	11.47
760.46	9.33
760.65	8.96
760.84	7.71
761.03	8.62
761.22	7.37
761.41	4.41
761.60	5.38
761.79	6.93
761.98	8.55
762.17	9.01
762.36	11.08
762.55	11.84
762.74	13.78
762.93	17.35
763.12	14.22
763.31	12.36
763.50	16.20
763.69	16.74
763.88	16.20
764.07	16.05
764.26	13.09
764.45	11.19
764.64	13.33
764.83	11.21
765.02	7.63
765.21	10.00
765.40	9.87
765.59	8.28
765.78	6.26
765.97	5.18
766.16	0.91
766.35	2.59
766.54	3.59
766.73	1.06
766.92	1.30
767.11	1.77
767.30	0.19
767.49	-1.62
767.68	-0.04
767.87	0.07
768.06	0.15
768.25	5.92
768.44	7.45
768.63	6.94
768.82	9.50
769.01	9.85
769.20	10.80
769.39	13.80
769.58	15.06
769.77	14.54
769.96	15.73
770.15	19.20
770.34	15.23
770.53	14.76
770.72	14.88
770.91	13.24
771.10	13.11
771.29	10.59
771.47	7.04
771.66	8.56
771.85	7.47
772.04	5.81
772.23	6.44
772.42	4.97
772.61	4.51
772.80	4.49
772.99	3.65
773.18	3.13
773.37	4.69
773.56	4.69
773.75	3.44
773.94	4.54
774.13	1.99
774.31	0.35
774.50	-0.54
774.69	-1.32
774.88	-0.67
775.07	4.60
775.26	6.24
775.45	7.91
775.64	9.51
775.83	12.10
776.02	11.26
776.21	16.42
776.40	17.28
776.58	19.53
776.77	19.83
776.96	21.06
777.15	18.23
777.34	15.97
777.53	12.83
777.72	14.35
777.91	13.13
778.10	13.74
778.28	13.87
778.47	11.88
778.66	13.83
778.85	15.88
779.04	12.05
779.23	10.91
779.42	9.83
779.61	10.39
779.79	11.97
779.98	12.44
780.17	10.91
780.36	6.76
780.55	8.19
780.74	6.68
780.93	2.46
781.12	4.64
781.30	4.41
781.49	6.61
781.68	5.25
781.87	3.48
782.06	1.84
782.25	4.65
782.44	6.94
782.62	4.92
782.81	4.13
783.00	6.63
783.19	7.78
783.38	8.96
783.57	7.39
783.75	7.50
783.94	8.45
784.13	7.99
784.32	6.78
784.51	6.53
784.70	6.96
784.88	8.40
785.07	7.80
785.26	7.56
785.45	5.51
785.64	7.30
785.83	6.89
786.01	4.32
786.20	4.38
786.39	4.43
786.58	5.98
786.77	6.11
786.95	5.55
787.14	6.39
787.33	4.90
787.52	5.10
787.71	4.80
787.90	7.13
788.08	10.02
788.27	12.33
788.46	12.68
788.65	12.29
788.84	12.79
789.02	13.55
789.21	14.71
789.40	16.25
789.59	18.41
789.77	18.82
789.96	19.68
790.15	16.29
790.34	14.17
790.53	13.59
790.71	11.43
790.90	11.25
791.09	13.31
791.28	12.18
791.46	9.50
791.65	8.15
791.84	6.37
792.03	3.70
792.22	3.33
792.40	4.08
792.59	5.59
792.78	6.33
792.97	7.15
793.15	2.51
793.34	1.66
793.53	4.38
793.72	2.40
793.90	3.85
794.09	6.59
794.28	8.71
794.47	7.73
794.65	3.87
794.84	5.25
795.03	5.73
795.22	6.93
795.40	10.84
795.59	10.76
795.78	15.15
795.97	16.29
796.15	15.62
796.34	12.49
796.53	14.19
796.71	14.30
796.90	13.11
797.09	12.29
797.28	11.47
797.46	11.75
797.65	9.66
797.84	7.93
798.02	7.21
798.21	8.14
798.40	10.74
798.59	7.97
798.77	12.10
798.96	12.83
799.15	12.05
799.33	12.92
799.52	9.50
799.71	8.97
799.90	7.65
800.08	5.88
800.27	2.22
800.46	3.63
800.64	6.98
800.83	2.63
801.02	3.82
801.20	7.13
801.39	8.04
801.58	10.78
801.76	11.88
801.95	11.54
802.14	13.65
802.32	15.19
802.51	15.29
802.70	12.70
802.88	13.40
803.07	12.16
803.26	8.32
803.44	7.13
803.63	6.91
803.82	3.61
804.00	2.68
804.19	2.66
804.38	3.24
804.56	-0.35
804.75	2.87
804.94	1.86
805.12	2.46
805.31	4.92
805.50	6.35
805.68	1.02
805.87	7.75
806.06	8.62
806.24	7.58
806.43	5.90
806.62	9.23
806.80	8.32
806.99	12.25
807.17	10.98
807.36	10.46
807.55	11.15
807.73	14.17
807.92	9.81
808.11	11.08
808.29	11.77
808.48	13.57
808.66	13.37
808.85	13.96
809.04	13.57
809.22	14.22
809.41	14.04
809.59	14.35
809.78	13.18
809.97	14.99
810.15	13.76
810.34	13.37
810.53	12.05
810.71	11.26
810.90	9.40
811.08	6.83
811.27	4.67
811.45	4.99
811.64	3.76
811.83	5.32
812.01	3.85
812.20	6.94
812.38	8.42
812.57	9.05
812.76	6.80
812.94	7.69
813.13	9.68
813.31	11.19
813.50	8.90
813.68	6.42
813.87	5.86
814.06	7.35
814.24	3.30
814.43	2.83
814.61	2.94
814.80	5.42
814.98	6.22
815.17	5.40
815.36	4.41
815.54	5.53
815.73	7.73
815.91	8.88
816.10	7.67
816.28	10.05
816.47	9.22
816.65	9.79
816.84	10.50
817.03	6.09
817.21	7.60
817.40	9.14
817.58	7.75
817.77	5.96
817.95	2.27
818.14	5.99
818.32	4.06
818.51	4.32
818.69	3.74
818.88	0.61
819.06	4.23
819.25	0.37
819.43	-1.56
819.62	-0.15
819.80	-0.28
819.99	1.84
820.18	-2.16
820.36	0.45
820.55	-0.13
820.73	1.12
820.92	2.03
821.10	0.73
821.29	0.41
821.47	-0.89
821.66	-1.66
821.84	3.28
822.03	1.81
822.21	6.44
822.40	5.32
822.58	5.38
822.77	6.98
822.95	8.96
823.14	8.15
823.32	11.69
823.50	13.87
823.69	16.63
823.87	14.04
824.06	14.28
824.24	7.82
824.43	7.63
824.61	10.48
824.80	7.39
824.98	4.38
825.17	4.51
825.35	2.98
825.54	1.66
825.72	2.14
825.91	3.11
826.09	4.78
826.28	6.93
826.46	2.98
826.64	1.19
826.83	2.23
827.01	4.41
827.20	2.35
827.38	4.54
827.57	3.89
827.75	-0.93
827.94	-1.92
828.12	-1.41
828.31	-0.69
828.49	2.63
828.67	2.33
828.86	5.57
829.04	6.94
829.23	12.98
829.41	11.52
829.60	15.02
829.78	19.25
829.96	18.52
830.15	16.98
830.33	15.97
830.52	17.46
830.70	14.73
830.88	12.10
831.07	12.31
831.25	7.89
831.44	6.74
831.62	4.19
831.81	3.41
831.99	4.19
832.17	6.74
832.36	6.76
832.54	6.94
832.73	8.96
832.91	8.68
833.09	6.50
833.28	6.37
833.46	9.96
833.65	11.52
833.83	6.87
834.01	6.68
834.20	6.33
834.38	8.88
834.56	8.04
834.75	9.38
834.93	8.75
835.12	9.59
835.30	9.87
835.48	4.23
835.67	7.39
835.85	9.05
836.03	9.09
836.22	7.89
836.40	5.88
836.59	3.48
836.77	1.56
836.95	1.04
837.14	-1.88
837.32	-0.11
837.50	4.23
837.69	-0.20
837.87	1.77
838.05	-1.21
838.24	-2.16
838.42	-2.92
838.60	-2.94
838.79	-3.82
838.97	-4.08
839.15	-2.14
839.34	-3.98
839.52	-4.80
839.70	-2.83
839.89	-1.25
840.07	2.22
840.25	-0.06
840.44	0.80
840.62	5.55
840.80	7.73
840.99	6.91
841.17	7.76
841.35	10.17
841.54	9.29
841.72	8.84
841.90	5.53
842.09	5.31
842.27	7.47
842.45	7.35
842.64	4.47
842.82	3.09
843.00	3.43
843.19	3.43
843.37	3.24
843.55	1.68
843.73	0.58
843.92	2.85
844.10	1.60
844.28	-0.07
844.47	2.09
844.65	3.07
844.83	3.15
845.01	2.68
845.20	2.61
845.38	1.55
845.56	2.66
845.75	3.17
845.93	4.38
846.11	2.36
846.29	2.49
846.48	1.79
846.66	2.36
846.84	3.03
847.02	4.17
847.21	3.11
847.39	3.82
847.57	1.71
847.76	1.99
847.94	-1.45
848.12	2.22
848.30	8.08
848.49	9.22
848.67	9.42
848.85	8.69
849.03	9.57
849.22	10.15
849.40	6.68
849.58	10.61
849.76	10.31
849.95	10.09
850.13	7.09
850.31	5.62
850.49	5.77
850.67	3.18
850.86	5.75
851.04	5.47
851.22	6.42
851.40	9.27
851.59	12.42
851.77	12.03
851.95	14.69
852.13	13.35
852.31	9.92
852.50	8.56
852.68	10.13
852.86	7.06
853.04	5.44
853.23	5.38
853.41	3.80
853.59	-2.18
853.77	-2.74
853.95	-5.68
854.14	-2.03
854.32	-0.32
854.50	-2.53
854.68	-2.87
854.86	-1.86
855.04	-3.76
855.23	-2.10
855.41	0.28
855.59	2.27
855.77	5.03
855.95	7.76
856.14	6.65
856.32	7.35
856.50	7.76
856.68	7.54
856.86	6.98
857.04	10.63
857.23	5.27
857.41	5.38
857.59	4.60
857.77	4.62
857.95	0.82
858.13	0.06
858.32	-0.78
858.50	1.81
858.68	0.09
858.86	2.22
859.04	1.38
859.22	2.85
859.41	0.02
859.59	0.76
859.77	-3.00
859.95	0.58
860.13	5.03
860.31	5.60
860.49	5.08
860.68	7.84
860.86	7.39
861.04	6.37
861.22	7.67
861.40	7.95
861.58	8.02
861.76	11.51
861.94	11.34
862.13	8.71
862.31	6.94
862.49	6.24
862.67	4.45
862.85	3.43
863.03	4.17
863.21	2.22
863.39	4.47
863.57	0.47
863.76	0.95
863.94	2.98
864.12	2.35
864.30	5.46
864.48	5.70
864.66	8.62
864.84	4.69
865.02	5.90
865.20	6.13
865.38	4.92
865.57	8.34
865.75	6.55
865.93	2.68
866.11	3.28
866.29	2.33
866.47	3.00
866.65	2.49
866.83	7.76
867.01	4.71
867.19	6.20
867.37	4.71
867.55	4.69
867.73	6.24
867.92	7.60
868.10	10.02
868.28	9.10
868.46	6.24
868.64	4.71
868.82	2.36
869.00	5.29
869.18	5.98
869.36	5.98
869.54	9.16
869.72	9.53
869.90	7.19
870.08	4.28
870.26	2.79
870.44	1.55
870.62	1.77
870.80	4.64
870.98	3.41
871.16	1.69
871.34	2.63
871.53	-1.34
871.71	-3.17
871.89	-1.69
872.07	0.76
872.25	4.32
872.43	5.70
872.61	5.06
872.79	2.10
872.97	0.91
873.15	-0.41
873.33	0.34
873.51	2.48
873.69	5.31
873.87	8.73
874.05	6.74
874.23	3.52
874.41	3.52
874.59	3.67
874.77	3.26
874.95	4.06
875.13	7.28
875.31	7.13
875.49	5.12
875.67	0.02
875.85	-4.65
876.03	-5.79
876.21	-5.14
876.39	-2.27
876.57	-1.81
876.75	-0.86
876.93	0.41
877.11	-1.49
877.29	-1.64
877.47	3.11
877.65	5.36
877.82	8.40
878.00	10.20
878.18	10.04
878.36	11.30
878.54	10.18
878.72	9.46
878.90	9.42
879.08	10.28
879.26	9.22
879.44	4.54
879.62	5.81
879.80	4.60
879.98	3.78
880.16	6.05
880.34	1.75
880.52	0.61
880.70	-1.02
880.88	0.39
881.06	1.47
881.24	2.33
881.42	4.45
881.59	3.28
881.77	4.17
881.95	2.76
882.13	-2.16
882.31	-1.38
882.49	0.06
882.67	2.03
882.85	-1.36
883.03	-2.49
883.21	-2.83
883.39	-3.24
883.57	-4.39
883.75	-4.06
883.92	-4.38
884.10	-0.91
884.28	0.30
884.46	-2.03
884.64	-0.41
884.82	2.44
885.00	4.97
885.18	4.38
885.36	2.64
885.54	4.75
885.71	5.38
885.89	9.05
886.07	8.75
886.25	12.57
886.43	14.95
886.61	13.16
886.79	11.97
886.97	13.07
887.15	12.53
887.32	15.79
887.50	14.50
887.68	14.76
887.86	12.31
888.04	12.51
888.22	7.48
888.40	6.05
888.57	6.05
888.75	4.80
888.93	4.21
889.11	5.99
889.29	4.56
889.47	5.77
889.65	2.16
889.82	2.07
890.00	-0.04
890.18	0.15
890.36	1.49
890.54	1.88
890.72	2.74
890.90	2.42
891.07	1.47
891.25	0.07
891.43	-0.26
891.61	3.59
891.79	5.49
891.97	6.42
892.14	6.05
892.32	5.38
892.50	7.75
892.68	8.14
892.86	3.95
893.03	5.05
893.21	7.04
893.39	1.92
893.57	-0.99
893.75	-2.40
893.93	-4.21
894.10	-2.12
894.28	-1.10
894.46	-0.95
894.64	-1.88
894.82	0.97
894.99	0.15
895.17	-2.81
895.35	-0.76
895.53	2.70
895.71	1.45
895.88	2.98
896.06	-0.06
896.24	0.74
896.42	-0.67
896.59	1.10
896.77	1.79
896.95	1.32
897.13	1.97
897.31	3.61
897.48	2.90
897.66	4.36
897.84	5.12
898.02	5.05
898.19	1.90
898.37	-0.15
898.55	-2.01
898.73	-0.84
898.91	-1.79
899.08	-2.68
899.26	-0.95
899.44	-1.40
899.62	-2.35
899.79	-1.12
899.97	0.88
900.15	2.66
900.33	1.10
900.50	0.86
900.68	-2.22
900.86	2.70
901.04	5.83
901.21	5.29
901.39	4.34
901.57	6.70
901.74	6.85
901.92	6.74
902.10	6.94
902.28	9.44
902.45	9.63
902.63	7.97
902.81	7.61
902.99	4.17
903.16	5.77
903.34	5.25
903.52	3.61
903.69	1.94
903.87	0.91
904.05	0.93
904.22	1.84
904.40	1.49
904.58	3.78
904.76	-0.09
904.93	0.09
905.11	-1.82
905.29	-0.28
905.46	1.84
905.64	2.72
905.82	3.63
905.99	2.03
906.17	2.53
906.35	6.52
906.53	4.36
906.70	6.03
906.88	9.46
907.06	9.46
907.23	8.62
907.41	4.04
907.59	3.63
907.76	2.77
907.94	5.36
908.12	3.54
908.29	1.77
908.47	3.69
908.65	3.28
908.82	1.45
909.00	-0.47
909.18	-0.43
909.35	3.26
909.53	1.99
909.71	0.35
909.88	-2.35
910.06	0.06
910.23	-0.69
910.41	-1.12
910.59	-0.58
910.76	-1.17
910.94	0.41
911.12	1.08
911.29	-0.74
911.47	1.99
911.65	2.53
911.82	1.49
912.00	-1.53
912.17	-1.27
912.35	-0.04
912.53	1.38
912.70	2.89
912.88	1.99
913.06	3.37
913.23	3.30
913.41	2.94
913.58	5.81
913.76	9.18
913.94	10.35
914.11	10.39
914.29	8.36
914.46	5.73
914.64	4.86
914.82	6.44
914.99	4.99
915.17	6.68
915.34	4.73
915.52	3.22
915.70	1.10
915.87	2.83
916.05	3.54
916.22	7.45
916.40	8.75
916.57	9.20
916.75	8.40
916.93	5.34
917.10	4.23
917.28	4.93
917.45	5.19
917.63	6.13
917.80	5.03
917.98	3.31
918.16	-1.38
918.33	-1.58
918.51	-0.63
918.68	-1.45
918.86	1.62
919.03	-0.76
919.21	-1.36
919.39	0.26
919.56	1.90
919.74	0.95
919.91	2.36
920.09	2.31
920.26	1.81
920.44	0.52
920.61	-0.07
920.79	-0.95
920.96	-0.35
921.14	1.66
921.31	-2.96
921.49	-3.43
921.67	-2.49
921.84	-4.88
922.02	-1.34
922.19	0.45
922.37	1.14
922.54	1.45
922.72	-1.90
922.89	1.17
923.07	-1.55
923.24	4.60
923.42	2.01
923.59	2.33
923.77	6.27
923.94	3.05
924.12	-1.86
924.29	0.02
924.47	1.75
924.64	8.81
924.82	8.38
924.99	8.27
925.17	7.17
925.34	10.78
925.52	11.65
925.69	9.74
925.87	12.40
926.04	13.37
926.22	11.67
926.39	9.31
926.57	7.32
926.74	6.87
926.91	8.66
927.09	6.83
927.26	5.03
927.44	1.14
927.61	0.69
927.79	0.74
927.96	3.59
928.14	3.26
928.31	9.33
928.49	6.93
928.66	7.19
928.84	8.12
929.01	7.63
929.18	6.48
929.36	9.09
929.53	9.98
929.71	7.13
929.88	9.20
930.06	7.86
930.23	3.15
930.41	0.95
930.58	-0.93
930.75	-0.07
930.93	0.48
931.10	1.21
931.28	0.35
931.45	0.07
931.63	1.19
931.80	-0.58
931.97	-0.34
932.15	0.76
932.32	2.07
932.50	3.18
932.67	1.69
932.84	0.07
933.02	1.71
933.19	2.74
933.37	1.64
933.54	1.32
933.71	2.63
933.89	4.32
934.06	1.82
934.24	4.15
934.41	5.08
934.58	3.93
934.76	7.93
934.93	8.97
935.11	6.26
935.28	4.23
935.45	5.16
935.63	4.08
935.80	2.12
935.98	3.57
936.15	2.35
936.32	1.08
936.50	2.44
936.67	-1.19
936.84	-2.33
937.02	-0.73
937.19	1.23
937.36	-1.17
937.54	-3.09
937.71	-3.63
937.89	-4.77
938.06	-4.93
938.23	-5.92
938.41	-5.46
938.58	-3.31
938.75	-3.31
938.93	-2.90
939.10	-4.58
939.27	-2.31
939.45	-1.38
939.62	-0.17
939.79	0.97
939.97	-0.26
940.14	0.30
940.31	-2.05
940.49	-4.71
940.66	-6.29
940.83	-4.84
941.01	-2.33
941.18	-2.49
941.35	-4.02
941.53	-2.25
941.70	1.14
941.87	2.07
942.05	1.36
942.22	1.88
942.39	4.47
942.57	4.58
942.74	4.17
942.91	1.56
943.08	-0.19
943.26	0.69
943.43	-0.99
943.60	-6.50
943.78	-3.98
943.95	-1.14
944.12	0.48
944.29	-0.30
944.47	0.50
944.64	-1.17
944.81	-1.14
944.99	0.50
945.16	-0.47
945.33	-2.25
945.50	0.73
945.68	-0.15
945.85	-3.43
946.02	-5.85
946.20	-4.28
946.37	-4.17
946.54	-2.29
946.71	0.95
946.89	0.91
947.06	2.48
947.23	4.84
947.40	3.74
947.58	5.72
947.75	7.34
947.92	9.12
948.09	7.88
948.27	6.76
948.44	3.72
948.61	2.70
948.78	1.19
948.96	-1.17
949.13	-0.11
949.30	1.92
949.47	-3.26
949.65	-3.93
949.82	-4.58
949.99	-4.41
950.16	-3.97
950.33	-2.98
950.51	-2.76
950.68	0.63
950.85	3.31
951.02	3.35
951.20	3.03
951.37	7.35
951.54	5.73
951.71	7.93
951.88	8.42
952.06	9.94
952.23	9.89
952.40	10.43
952.57	7.34
952.74	6.70
952.92	3.76
953.09	3.52
953.26	1.10
953.43	3.87
953.60	0.74
953.77	0.86
953.95	-0.52
954.12	-1.30
954.29	-3.41
954.46	-1.27
954.63	-0.39
954.81	2.09
954.98	2.07
955.15	1.71
955.32	1.68
955.49	0.24
955.66	-1.47
955.84	1.02
956.01	1.79
956.18	0.56
956.35	-0.91
956.52	-1.36
956.69	-3.54
956.87	-4.11
957.04	-3.50
957.21	-3.41
957.38	0.35
957.55	1.95
957.72	0.99
957.89	3.41
958.07	4.69
958.24	2.49
958.41	0.99
958.58	1.53
958.75	0.67
958.92	-1.23
959.09	0.50
959.26	0.61
959.44	-0.71
959.61	-3.18
959.78	-3.43
959.95	-3.05
960.12	-2.63
960.29	0.67
960.46	-1.88
960.63	-0.28
960.81	0.20
960.98	-2.33
961.15	-4.02
961.32	-3.87
961.49	-5.57
961.66	-5.64
961.83	-4.54
962.00	-2.23
962.17	-4.99
962.34	-1.23
962.52	-3.61
962.69	-4.30
962.86	-4.26
963.03	-4.97
963.20	-2.57
963.37	1.49
963.54	0.06
963.71	1.08
963.88	0.50
964.05	-0.30
964.22	-1.58
964.39	0.73
964.56	0.54
964.74	0.56
964.91	-0.04
965.08	-2.87
965.25	-3.46
965.42	-5.10
965.59	-8.28
965.76	-10.74
965.93	-9.05
966.10	-7.58
966.27	-9.74
966.44	-7.69
966.61	-6.61
966.78	-4.67
966.95	-6.93
967.12	-8.06
967.29	-4.88
967.46	-3.09
967.63	1.97
967.80	3.76
967.97	2.46
968.14	3.72
968.32	1.32
968.49	3.07
968.66	2.27
968.83	5.19
969.00	6.20
969.17	6.26
969.34	7.13
969.51	2.49
969.68	1.34
969.85	1.32
970.02	-0.37
970.19	1.64
970.36	-0.09
970.53	-0.56
970.70	-1.45
970.87	-4.43
971.04	-3.43
971.21	-3.84
971.38	-2.83
971.55	-3.93
971.72	-3.24
971.89	-1.73
972.06	-3.31
972.23	-4.21
972.40	-2.63
972.57	-1.95
972.74	0.69
972.91	-1.41
973.07	-2.12
973.24	-1.94
973.41	-2.16
973.58	-3.84
973.75	-3.63
973.92	-0.43
974.09	1.41
974.26	1.75
974.43	2.12
974.60	3.87
974.77	4.02
974.94	2.94
975.11	6.98
975.28	8.58
975.45	7.28
975.62	9.20
975.79	7.60
975.96	6.98
976.13	6.14
976.30	4.88
976.47	1.19
976.64	-1.14
976.80	-1.12
976.97	-7.37
977.14	-10.22
977.31	-8.68
977.48	-11.36
977.65	-10.80
977.82	-10.93
977.99	-9.27
978.16	-5.68
978.33	-2.14
978.50	-0.74
978.67	-1.75
978.83	2.33
979.00	3.78
979.17	4.90
979.34	5.98
979.51	7.76
979.68	7.02
979.85	5.47
980.02	4.08
980.19	2.20
980.36	3.41
980.52	3.72
980.69	1.43
980.86	0.34
981.03	0.74
981.20	0.54
981.37	-1.75
981.54	-4.19
981.71	-5.51
981.88	-7.93
982.04	-8.01
982.21	-10.28
982.38	-8.32
982.55	-6.14
982.72	-2.31
982.89	-3.72
983.06	-4.97
983.22	-4.15
983.39	-2.03
983.56	2.36
983.73	-0.07
983.90	0.28
984.07	0.09
984.24	1.10
984.40	2.25
984.57	0.88
984.74	3.63
984.91	1.97
985.08	4.93
985.25	5.34
985.41	1.99
985.58	7.02
985.75	8.68
985.92	13.68
986.09	8.68
986.26	8.14
986.42	6.35
986.59	3.69
986.76	6.53
986.93	3.56
987.10	2.74
987.27	-0.97
987.43	-5.08
987.60	-7.00
987.77	-7.07
987.94	-1.58
988.11	-2.14
988.27	1.28
988.44	1.79
988.61	4.71
988.78	4.60
988.95	6.33
989.11	9.89
989.28	11.93
989.45	10.20
989.62	7.24
989.79	6.39
989.95	5.59
990.12	-0.76
990.29	-1.68
990.46	-4.15
990.62	-4.45
990.79	-4.43
990.96	-4.02
991.13	-3.57
991.30	-0.86
991.46	-3.09
991.63	1.15
991.80	-1.47
991.97	2.79
992.13	6.81
992.30	6.59
992.47	6.65
992.64	3.43
992.80	2.10
992.97	3.15
993.14	3.97
993.31	6.87
993.47	2.64
993.64	6.07
993.81	7.02
993.98	1.55
994.14	-0.48
994.31	-2.07
994.48	-1.02
994.64	-0.17
994.81	-2.59
994.98	-4.65
995.15	-3.61
995.31	-2.92
995.48	-2.59
995.65	-4.21
995.82	-2.85
995.98	-1.49
996.15	1.79
996.32	5.01
996.48	4.43
996.65	7.78
996.82	9.35
996.99	5.60
997.15	1.99
997.32	3.15
997.49	4.80
997.65	6.05
997.82	4.56
997.99	2.44
998.15	0.41
998.32	0.19
998.49	-1.19
998.65	-1.92
998.82	-1.66
998.99	2.63
999.15	0.19
999.32	-1.25
999.49	-0.45
999.65	0.80
999.82	-0.63
999.99	0.63
1000.15	1.30
1000.32	1.43
1000.49	-0.17
1000.65	0.88
1000.82	-2.14
1000.99	0.45
1001.15	-0.32
1001.32	-1.43
1001.49	-1.86
1001.65	-2.29
1001.82	-4.26
1001.99	-3.84
1002.15	-1.90
1002.32	-0.17
1002.49	1.79
1002.65	3.82
1002.82	5.21
1002.99	6.61
1003.15	7.97
1003.32	8.21
1003.48	8.73
1003.65	10.28
1003.82	10.02
1003.98	7.37
1004.15	5.83
1004.32	6.39
1004.48	5.32
1004.65	2.64
1004.81	2.70
1004.98	-0.43
1005.15	-0.82
1005.31	-0.22
1005.48	-1.41
1005.64	-3.69
1005.81	-2.27
1005.98	-2.07
1006.14	-4.56
1006.31	-3.82
1006.47	-4.10
1006.64	-4.56
1006.81	-2.36
1006.97	-0.32
1007.14	2.49
1007.30	3.46
1007.47	5.27
1007.63	3.31
1007.80	4.92
1007.97	6.74
1008.13	6.11
1008.30	5.12
1008.46	6.46
1008.63	8.23
1008.79	9.46
1008.96	7.48
1009.13	5.49
1009.29	7.00
1009.46	7.88
1009.62	6.94
1009.79	3.63
1009.95	6.70
1010.12	7.17
1010.28	4.65
1010.45	0.20
1010.62	-1.43
1010.78	1.69
1010.95	1.64
1011.11	1.21
1011.28	2.01
1011.44	-0.22
1011.61	4.97
1011.77	3.11
1011.94	2.20
1012.10	5.51
1012.27	10.11
1012.43	8.21
1012.60	5.94
1012.76	8.86
1012.93	8.30
1013.10	6.42
1013.26	10.54
1013.43	9.66
1013.59	10.13
1013.76	13.14
1013.92	12.10
1014.09	8.30
1014.25	9.53
1014.42	7.76
1014.58	7.35
1014.75	6.70
1014.91	4.69
1015.08	4.24
1015.24	3.41
1015.41	2.01
1015.57	3.44
1015.73	2.90
1015.90	6.29
1016.06	6.55
1016.23	8.53
1016.39	5.79
1016.56	6.27
1016.72	6.40
1016.89	4.92
1017.05	4.69
1017.22	5.90
1017.38	3.91
1017.55	3.91
1017.71	1.62
1017.88	0.04
1018.04	0.37
1018.21	0.11
1018.37	2.63
1018.53	5.60
1018.70	7.00
1018.86	5.79
1019.03	3.31
1019.19	0.95
1019.36	1.90
1019.52	2.46
1019.69	4.38
1019.85	3.80
1020.01	2.51
1020.18	0.19
1020.34	-2.38
1020.51	-4.78
1020.67	-5.42
1020.84	-2.92
1021.00	-1.77
1021.16	-2.44
1021.33	-2.23
1021.49	-3.24
1021.66	-1.66
1021.82	2.07
1021.98	2.22
1022.15	7.45
1022.31	9.36
1022.48	8.47
1022.64	6.44
1022.80	7.21
1022.97	6.14
1023.13	8.38
1023.30	10.61
1023.46	10.20
1023.62	10.44
1023.79	10.65
1023.95	10.57
1024.12	9.79
1024.28	11.54
1024.44	16.57
1024.61	16.37
1024.77	16.92
1024.93	16.76
1025.10	15.12
1025.26	18.21
1025.43	19.51
1025.59	19.94
1025.75	17.56
1025.92	18.92
1026.08	19.66
1026.24	15.45
1026.41	15.08
1026.57	15.60
1026.73	12.72
1026.90	14.54
1027.06	6.39
1027.23	2.09
1027.39	0.99
1027.55	-0.58
1027.72	-0.15
1027.88	0.13
1028.04	-1.69
1028.21	-2.70
1028.37	-5.85
1028.53	-4.17
1028.70	-6.07
1028.86	-3.56
1029.02	-2.36
1029.19	-2.05
1029.35	1.34
1029.51	-0.65
1029.67	0.65
1029.84	0.89
1030.00	3.09
1030.16	4.41
1030.33	5.81
1030.49	5.46
1030.65	5.40
1030.82	6.46
1030.98	4.24
1031.14	2.98
1031.31	3.61
1031.47	3.43
1031.63	4.06
1031.79	2.77
1031.96	4.02
1032.12	-1.66
1032.28	-0.22
1032.45	3.15
1032.61	3.69
1032.77	4.95
1032.93	4.00
1033.10	3.57
1033.26	-1.02
1033.42	-0.47
1033.58	1.75
1033.75	0.37
1033.91	-0.45
1034.07	-2.25
1034.24	-4.34
1034.40	-5.68
1034.56	-5.92
1034.72	-5.06
1034.89	-5.92
1035.05	-1.86
1035.21	-3.39
1035.37	-6.52
1035.54	-4.23
1035.70	-0.24
1035.86	3.43
1036.02	3.39
1036.19	4.95
1036.35	8.97
1036.51	6.44
1036.67	8.25
1036.83	6.68
1037.00	10.63
1037.16	11.04
1037.32	9.50
1037.48	11.13
1037.65	6.89
1037.81	6.61
1037.97	8.53
1038.13	6.59
1038.29	9.87
1038.46	9.98
1038.62	10.22
1038.78	5.96
1038.94	7.39
1039.10	6.42
1039.27	5.25
1039.43	5.18
1039.59	3.15
1039.75	1.12
1039.91	1.51
1040.08	-1.34
1040.24	-5.38
1040.40	-5.51
1040.56	-0.80
1040.72	-1.28
1040.89	1.71
1041.05	1.53
1041.21	3.80
1041.37	5.68
1041.53	4.90
1041.69	6.20
1041.86	5.75
1042.02	6.22
1042.18	7.47
1042.34	5.47
1042.50	6.29
1042.66	3.97
1042.83	5.70
1042.99	5.94
1043.15	4.77
1043.31	4.90
1043.47	2.42
1043.63	3.54
1043.79	6.37
1043.96	4.11
1044.12	3.05
1044.28	2.70
1044.44	1.62
1044.60	1.84
1044.76	-0.04
1044.92	-0.99
1045.09	-2.33
1045.25	-2.70
1045.41	-0.76
1045.57	-0.56
1045.73	-1.82
1045.89	-0.20
1046.05	-0.69
1046.21	18.64
1046.38	4.92
1046.54	-21.09
1046.70	15.97
1046.86	8.81
>>>>>End Processed Spectral Data<<<<<
