SpectraSuite Data File
++++++++++++++++++++++++++++++++++++
Date: Mon May 06 13:52:45 CDT 2013
User: Students
Dark Spectrum Present: Yes
Reference Spectrum Present: Yes
Number of Sampled Component Spectra: 1
Spectrometers: USB4H00887
Integration Time (usec): 100000 (USB4H00887)
Spectra Averaged: 10 (USB4H00887)
Boxcar Smoothing: 5 (USB4H00887)
Correct for Electrical Dark: No (USB4H00887)
Strobe/Lamp Enabled: No (USB4H00887)
Correct for Detector Non-linearity: No (USB4H00887)
Correct for Stray Light: No (USB4H00887)
Number of Pixels in Processed Spectrum: 3648
>>>>>Begin Processed Spectral Data<<<<<
345.83	-8.40
346.05	-8.40
346.26	-8.40
346.48	3.07
346.70	-4.30
346.92	-0.39
347.14	-2.49
347.35	-1.15
347.57	-3.33
347.79	-6.13
348.01	-6.93
348.23	-7.22
348.44	-8.40
348.66	-11.49
348.88	-13.05
349.10	-13.14
349.32	-11.34
349.53	-5.70
349.75	-5.53
349.97	-0.58
350.19	4.17
350.41	7.78
350.62	7.54
350.84	9.27
351.06	12.06
351.28	15.49
351.50	17.72
351.71	16.81
351.93	14.02
352.15	14.48
352.37	12.59
352.58	11.00
352.80	10.67
353.02	10.61
353.24	11.90
353.46	9.92
353.67	7.80
353.89	8.06
354.11	8.40
354.33	9.05
354.54	8.21
354.76	8.60
354.98	8.69
355.20	6.76
355.41	5.81
355.63	4.90
355.85	6.16
356.07	5.44
356.28	0.97
356.50	-1.06
356.72	0.37
356.94	1.60
357.15	1.55
357.37	2.72
357.59	4.64
357.81	2.38
358.02	-2.46
358.24	-0.97
358.46	-1.41
358.68	1.81
358.89	2.98
359.11	1.47
359.33	-0.07
359.55	-1.08
359.76	-3.07
359.98	-5.59
360.20	-1.94
360.42	3.87
360.63	1.06
360.85	0.37
361.07	-0.69
361.29	1.17
361.50	2.53
361.72	1.99
361.94	1.58
362.15	3.69
362.37	4.04
362.59	5.81
362.81	4.51
363.02	6.42
363.24	6.55
363.46	6.16
363.68	2.03
363.89	0.00
364.11	0.97
364.33	2.16
364.54	0.71
364.76	1.69
364.98	1.47
365.20	-1.49
365.41	-5.64
365.63	-2.53
365.85	-4.08
366.06	0.45
366.28	0.91
366.50	0.15
366.71	1.32
366.93	0.69
367.15	1.58
367.37	0.74
367.58	5.73
367.80	10.05
368.02	9.12
368.23	12.27
368.45	8.56
368.67	7.39
368.88	9.10
369.10	7.04
369.32	9.77
369.53	5.99
369.75	7.09
369.97	3.67
370.19	2.27
370.40	1.19
370.62	0.89
370.84	2.09
371.05	4.80
371.27	4.56
371.49	5.68
371.70	0.58
371.92	3.50
372.14	0.65
372.35	2.01
372.57	4.97
372.79	5.73
373.00	5.51
373.22	7.99
373.44	6.81
373.65	4.13
373.87	2.92
374.09	5.51
374.30	3.18
374.52	3.57
374.74	4.78
374.95	2.55
375.17	4.28
375.39	3.78
375.60	1.36
375.82	2.38
376.04	7.75
376.25	8.71
376.47	9.31
376.68	11.58
376.90	12.08
377.12	9.98
377.33	8.12
377.55	6.11
377.77	9.10
377.98	8.68
378.20	7.19
378.42	4.77
378.63	4.23
378.85	6.09
379.07	5.47
379.28	3.84
379.50	6.29
379.71	10.80
379.93	11.43
380.15	9.38
380.36	11.28
380.58	12.79
380.80	14.43
381.01	15.81
381.23	13.85
381.44	15.01
381.66	15.15
381.88	13.68
382.09	8.90
382.31	8.51
382.53	5.77
382.74	6.76
382.96	4.99
383.17	1.60
383.39	0.86
383.61	2.16
383.82	-0.89
384.04	-0.07
384.25	1.30
384.47	2.22
384.69	-0.88
384.90	2.31
385.12	-0.63
385.33	-0.43
385.55	1.49
385.77	1.49
385.98	-1.81
386.20	-0.24
386.41	-1.01
386.63	-2.16
386.85	-1.15
387.06	-1.55
387.28	-1.28
387.49	-3.18
387.71	-3.18
387.93	-5.49
388.14	-5.38
388.36	-3.31
388.57	-3.05
388.79	-1.28
389.01	-2.33
389.22	-1.90
389.44	2.90
389.65	2.27
389.87	4.41
390.08	4.69
390.30	6.07
390.52	4.73
390.73	4.49
390.95	4.80
391.16	1.60
391.38	-1.15
391.59	-2.94
391.81	-4.21
392.03	-3.82
392.24	-4.62
392.46	-4.23
392.67	-2.25
392.89	-2.12
393.10	-3.39
393.32	-4.08
393.53	-2.09
393.75	1.95
393.97	1.90
394.18	1.62
394.40	1.32
394.61	4.36
394.83	4.69
395.04	3.67
395.26	3.28
395.47	2.96
395.69	2.98
395.91	3.41
396.12	2.92
396.34	2.01
396.55	1.40
396.77	-0.99
396.98	-2.33
397.20	-6.57
397.41	-8.47
397.63	-8.49
397.84	-8.19
398.06	-6.87
398.27	-5.64
398.49	-7.30
398.71	-4.26
398.92	-2.57
399.14	-1.51
399.35	-0.95
399.57	0.95
399.78	0.58
400.00	1.82
400.21	1.99
400.43	0.26
400.64	-1.64
400.86	-1.30
401.07	-0.32
401.29	-0.95
401.50	-1.36
401.72	-4.97
401.93	-3.85
402.15	-3.74
402.36	-5.16
402.58	-3.80
402.79	-2.55
403.01	-2.22
403.22	-2.16
403.44	-3.41
403.65	-4.32
403.87	-0.39
404.08	5.42
404.30	6.24
404.51	6.18
404.73	7.73
404.94	7.75
405.16	10.48
405.37	12.57
405.59	14.35
405.80	12.83
406.02	15.64
406.23	12.75
406.45	6.33
406.66	5.38
406.88	4.51
407.09	3.57
407.31	1.90
407.52	-4.00
407.74	-7.75
407.95	-8.56
408.17	-7.32
408.38	-7.19
408.60	-4.99
408.81	-2.16
409.03	-0.45
409.24	-0.58
409.45	2.76
409.67	1.51
409.88	6.29
410.10	6.65
410.31	8.19
410.53	3.15
410.74	-0.95
410.96	-3.61
411.17	-5.06
411.39	-7.80
411.60	-6.98
411.82	-8.30
412.03	-3.20
412.24	-6.46
412.46	-4.38
412.67	-4.67
412.89	-0.34
413.10	-1.43
413.32	-1.25
413.53	-0.88
413.75	-2.77
413.96	-2.09
414.17	-3.15
414.39	-4.99
414.60	-4.08
414.82	-5.55
415.03	-7.54
415.25	-6.22
415.46	-0.52
415.68	-0.07
415.89	6.20
416.10	8.64
416.32	8.51
416.53	7.60
416.75	6.01
416.96	5.85
417.18	5.96
417.39	7.24
417.60	6.42
417.82	2.90
418.03	4.06
418.25	1.56
418.46	3.82
418.67	3.41
418.89	5.47
419.10	9.81
419.32	9.12
419.53	10.04
419.75	11.67
419.96	9.79
420.17	7.76
420.39	6.93
420.60	4.77
420.82	4.58
421.03	6.37
421.24	2.94
421.46	-0.50
421.67	1.68
421.89	2.44
422.10	-1.47
422.31	-1.01
422.53	1.55
422.74	1.38
422.96	4.17
423.17	3.50
423.38	4.32
423.60	5.64
423.81	5.73
424.03	4.88
424.24	4.19
424.45	3.50
424.67	5.16
424.88	5.31
425.09	6.16
425.31	2.79
425.52	1.25
425.74	-4.08
425.95	-3.97
426.16	-1.41
426.38	-4.04
426.59	-2.98
426.80	-1.60
427.02	-1.43
427.23	-1.86
427.45	-1.75
427.66	-0.93
427.87	-0.32
428.09	2.35
428.30	5.86
428.51	1.97
428.73	2.12
428.94	0.37
429.15	0.63
429.37	-0.99
429.58	0.19
429.79	0.11
430.01	-1.97
430.22	-3.24
430.44	-5.12
430.65	-8.99
430.86	-8.86
431.08	-7.34
431.29	-5.73
431.50	-5.88
431.72	-7.00
431.93	-6.63
432.14	-6.50
432.36	-3.18
432.57	-0.47
432.78	1.56
433.00	1.21
433.21	5.23
433.42	5.98
433.64	5.94
433.85	8.96
434.06	10.37
434.28	6.76
434.49	6.37
434.70	4.75
434.92	2.38
435.13	2.49
435.34	5.34
435.56	0.91
435.77	0.02
435.98	-2.03
436.20	-1.88
436.41	-2.42
436.62	-0.67
436.83	-1.32
437.05	0.88
437.26	3.50
437.47	5.08
437.69	4.51
437.90	5.64
438.11	8.25
438.33	4.56
438.54	2.36
438.75	1.02
438.97	2.96
439.18	2.59
439.39	1.25
439.60	2.22
439.82	2.94
440.03	2.35
440.24	3.15
440.46	0.93
440.67	6.26
440.88	7.71
441.10	9.90
441.31	8.14
441.52	8.56
441.73	8.23
441.95	7.37
442.16	4.34
442.37	-0.02
442.58	0.41
442.80	0.09
443.01	-0.09
443.22	-3.50
443.44	-2.36
443.65	-1.62
443.86	-0.73
444.07	0.22
444.29	-4.38
444.50	-3.57
444.71	0.93
444.92	-3.18
445.14	-2.46
445.35	-3.11
445.56	0.13
445.78	1.14
445.99	-0.99
446.20	-1.36
446.41	-5.16
446.63	-2.42
446.84	-1.90
447.05	-3.46
447.26	0.78
447.48	-0.35
447.69	-2.14
447.90	-4.13
448.11	-6.14
448.33	-6.20
448.54	-7.43
448.75	-5.44
448.96	-4.77
449.18	-4.41
449.39	-3.56
449.60	-4.04
449.81	-3.76
450.03	-0.84
450.24	-1.41
450.45	-1.32
450.66	-1.34
450.87	-1.56
451.09	-4.13
451.30	-4.64
451.51	-5.08
451.72	-4.86
451.94	-8.08
452.15	-8.73
452.36	-11.38
452.57	-12.38
452.78	-13.93
453.00	-13.07
453.21	-14.00
453.42	-11.47
453.63	-9.98
453.85	-8.27
454.06	-7.15
454.27	-5.70
454.48	-4.43
454.69	-0.73
454.91	4.62
455.12	7.11
455.33	7.06
455.54	10.41
455.75	13.29
455.97	10.78
456.18	7.21
456.39	6.26
456.60	6.46
456.81	5.85
457.03	5.96
457.24	3.03
457.45	2.96
457.66	2.96
457.87	1.86
458.09	1.88
458.30	-0.17
458.51	-1.56
458.72	-1.58
458.93	-2.51
459.15	-2.49
459.36	-5.86
459.57	-7.39
459.78	-8.68
459.99	-10.13
460.20	-13.70
460.42	-18.02
460.63	-12.27
460.84	-9.51
461.05	-9.14
461.26	-7.07
461.47	-3.72
461.69	-1.40
461.90	-1.25
462.11	-0.74
462.32	0.11
462.53	3.09
462.74	5.59
462.96	4.86
463.17	6.33
463.38	2.72
463.59	0.89
463.80	-0.54
464.01	-3.48
464.23	0.97
464.44	-0.15
464.65	-1.82
464.86	0.82
465.07	-0.20
465.28	-3.35
465.49	-1.01
465.71	2.76
465.92	6.39
466.13	4.92
466.34	6.52
466.55	5.36
466.76	5.46
466.97	7.89
467.19	5.34
467.40	6.26
467.61	8.62
467.82	4.00
468.03	4.28
468.24	1.08
468.45	5.46
468.66	5.83
468.88	3.97
469.09	4.56
469.30	8.34
469.51	8.64
469.72	5.64
469.93	4.58
470.14	5.47
470.35	3.95
470.57	2.64
470.78	-0.71
470.99	-0.74
471.20	-1.68
471.41	-4.69
471.62	-8.58
471.83	-9.27
472.04	-7.91
472.25	-7.02
472.47	-8.75
472.68	-7.09
472.89	-5.03
473.10	-4.51
473.31	-5.62
473.52	-3.95
473.73	0.78
473.94	2.49
474.15	2.23
474.36	3.74
474.57	3.02
474.79	6.81
475.00	6.91
475.21	7.58
475.42	7.15
475.63	7.47
475.84	6.33
476.05	5.19
476.26	3.48
476.47	4.56
476.68	4.38
476.89	5.59
477.10	6.91
477.32	8.06
477.53	10.20
477.74	7.99
477.95	6.81
478.16	6.46
478.37	5.64
478.58	6.26
478.79	7.93
479.00	8.62
479.21	6.74
479.42	3.44
479.63	2.63
479.84	0.37
480.05	1.84
480.26	8.49
480.47	8.69
480.69	8.01
480.90	8.10
481.11	7.35
481.32	7.56
481.53	10.37
481.74	10.93
481.95	8.73
482.16	8.77
482.37	9.40
482.58	8.19
482.79	9.22
483.00	14.15
483.21	16.40
483.42	19.10
483.63	17.04
483.84	15.55
484.05	16.87
484.26	19.06
484.47	20.74
484.68	21.67
484.89	21.52
485.10	21.19
485.31	20.41
485.52	19.73
485.73	16.38
485.94	18.56
486.15	18.34
486.37	18.28
486.58	14.26
486.79	15.27
487.00	17.09
487.21	16.91
487.42	20.50
487.63	19.16
487.84	18.79
488.05	17.89
488.26	18.97
488.47	19.81
488.68	17.80
488.89	21.22
489.10	20.68
489.31	19.85
489.52	17.26
489.73	16.98
489.94	15.38
490.15	17.30
490.36	20.70
490.57	17.93
490.78	19.85
490.99	19.79
491.20	19.42
491.41	17.39
491.62	15.06
491.83	13.74
492.04	9.63
492.25	13.26
492.45	12.01
492.66	13.09
492.87	14.19
493.08	13.33
493.29	15.29
493.50	15.86
493.71	16.81
493.92	20.78
494.13	24.31
494.34	27.54
494.55	25.25
494.76	25.39
494.97	24.61
495.18	25.82
495.39	25.36
495.60	26.44
495.81	28.80
496.02	27.89
496.23	23.01
496.44	24.50
496.65	24.91
496.86	29.62
497.07	31.43
497.28	30.83
497.49	28.34
497.70	31.37
497.91	33.27
498.12	31.28
498.32	36.32
498.53	41.78
498.74	42.04
498.95	40.96
499.16	39.84
499.37	40.49
499.58	41.31
499.79	41.61
500.00	40.21
500.21	38.35
500.42	40.57
500.63	40.62
500.84	39.75
501.05	41.67
501.26	43.32
501.46	44.83
501.67	44.25
501.88	45.17
502.09	51.53
502.30	53.56
502.51	55.02
502.72	55.57
502.93	53.14
503.14	54.31
503.35	51.93
503.56	50.47
503.77	49.60
503.97	51.16
504.18	50.62
504.39	47.29
504.60	47.74
504.81	47.81
505.02	48.54
505.23	48.39
505.44	49.56
505.65	48.52
505.86	50.36
506.07	47.42
506.27	49.13
506.48	48.11
506.69	50.70
506.90	49.56
507.11	50.55
507.32	52.61
507.53	53.92
507.74	52.89
507.95	56.54
508.15	61.05
508.36	64.21
508.57	64.53
508.78	67.99
508.99	68.63
509.20	69.98
509.41	72.24
509.62	71.42
509.82	72.48
510.03	71.60
510.24	70.84
510.45	70.62
510.66	73.04
510.87	72.72
511.08	72.31
511.29	72.48
511.49	71.79
511.70	73.35
511.91	74.12
512.12	77.71
512.33	79.91
512.54	79.85
512.75	79.24
512.95	80.58
513.16	79.39
513.37	81.38
513.58	81.25
513.79	85.74
514.00	84.17
514.20	86.54
514.41	84.79
514.62	86.33
514.83	88.73
515.04	89.65
515.25	89.87
515.46	96.66
515.66	98.64
515.87	103.44
516.08	103.05
516.29	107.56
516.50	109.01
516.71	110.65
516.91	114.61
517.12	117.72
517.33	117.52
517.54	119.08
517.75	116.42
517.95	118.24
518.16	119.02
518.37	120.22
518.58	116.64
518.79	116.60
519.00	118.54
519.20	117.96
519.41	117.11
519.62	118.06
519.83	120.74
520.04	119.71
520.24	117.42
520.45	116.44
520.66	117.35
520.87	120.85
521.08	122.28
521.28	123.94
521.49	125.28
521.70	129.21
521.91	133.90
522.12	134.27
522.32	137.40
522.53	141.63
522.74	140.96
522.95	143.10
523.16	143.02
523.36	143.06
523.57	140.30
523.78	141.03
523.99	140.70
524.20	139.56
524.40	142.45
524.61	143.43
524.82	142.86
525.03	147.21
525.23	149.30
525.44	154.32
525.65	157.17
525.86	164.12
526.06	167.78
526.27	168.94
526.48	171.15
526.69	168.85
526.90	172.66
527.10	175.70
527.31	177.52
527.52	179.51
527.73	180.85
527.93	182.16
528.14	182.68
528.35	181.86
528.56	185.27
528.76	189.23
528.97	190.81
529.18	191.88
529.39	195.99
529.59	198.82
529.80	199.45
530.01	200.29
530.22	206.34
530.42	206.75
530.63	205.93
530.84	207.59
531.05	210.87
531.25	212.11
531.46	213.47
531.67	213.16
531.88	212.50
532.08	213.58
532.29	214.24
532.50	212.82
532.70	217.29
532.91	222.35
533.12	221.59
533.33	217.44
533.53	223.23
533.74	223.69
533.95	227.42
534.15	229.22
534.36	233.25
534.57	233.86
534.78	235.01
534.98	234.81
535.19	238.83
535.40	243.13
535.60	245.42
535.81	246.15
536.02	248.96
536.23	249.16
536.43	254.60
536.64	254.04
536.85	258.73
537.05	263.78
537.26	267.07
537.47	267.15
537.67	265.51
537.88	268.17
538.09	271.54
538.30	276.72
538.50	275.81
538.71	273.33
538.92	277.18
539.12	279.36
539.33	278.99
539.54	279.10
539.74	283.22
539.95	285.23
540.16	289.42
540.36	289.79
540.57	290.09
540.78	296.32
540.98	300.12
541.19	305.15
541.40	306.62
541.60	310.58
541.81	314.53
542.02	316.09
542.22	322.57
542.43	325.16
542.64	325.33
542.84	328.51
543.05	334.02
543.26	339.09
543.46	338.38
543.67	343.89
543.88	341.66
544.08	345.66
544.29	345.23
544.50	346.35
544.70	351.71
544.91	357.80
545.12	361.04
545.32	360.13
545.53	361.60
545.74	367.37
545.94	369.79
546.15	377.76
546.35	379.86
546.56	384.33
546.77	388.41
546.97	387.70
547.18	391.03
547.39	390.77
547.59	393.90
547.80	397.31
548.01	398.18
548.21	400.88
548.42	403.26
548.62	406.95
548.83	414.23
549.04	417.64
549.24	422.72
549.45	426.42
549.65	432.01
549.86	434.88
550.07	441.54
550.27	441.80
550.48	444.39
550.69	448.88
550.89	450.63
551.10	449.79
551.30	456.47
551.51	462.13
551.72	466.06
551.92	469.60
552.13	474.27
552.33	473.66
552.54	478.82
552.75	483.02
552.95	482.26
553.16	488.40
553.36	494.57
553.57	497.60
553.78	499.05
553.98	503.11
554.19	508.03
554.39	510.58
554.60	515.38
554.80	517.99
555.01	518.82
555.22	526.44
555.42	529.08
555.63	531.73
555.83	534.52
556.04	541.95
556.25	544.24
556.45	548.20
556.66	552.93
556.86	556.92
557.07	566.80
557.27	571.63
557.48	574.16
557.68	577.94
557.89	582.81
558.10	588.03
558.30	588.77
558.51	593.00
558.71	595.49
558.92	601.86
559.12	605.34
559.33	607.35
559.54	613.14
559.74	618.17
559.95	619.86
560.15	623.01
560.36	625.21
560.56	630.55
560.77	632.19
560.97	636.60
561.18	637.55
561.38	640.18
561.59	643.83
561.79	644.85
562.00	645.39
562.21	648.98
562.41	652.26
562.62	655.11
562.82	656.67
563.03	658.96
563.23	660.97
563.44	662.28
563.64	664.81
563.85	667.53
564.05	668.74
564.26	670.04
564.46	671.92
564.67	675.89
564.87	675.05
565.08	672.93
565.28	675.18
565.49	676.97
565.69	681.02
565.90	683.13
566.10	681.34
566.31	684.06
566.51	686.98
566.72	689.89
566.92	688.51
567.13	689.61
567.33	690.87
567.54	692.31
567.74	693.05
567.95	691.38
568.15	694.00
568.36	695.53
568.56	695.30
568.77	690.87
568.97	690.59
569.18	687.35
569.38	690.26
569.59	690.09
569.79	688.34
570.00	684.21
570.20	683.05
570.41	677.21
570.61	675.51
570.82	674.41
571.02	677.23
571.23	671.81
571.43	670.60
571.64	666.69
571.84	661.61
572.05	658.78
572.25	658.94
572.45	655.65
572.66	655.42
572.86	653.79
573.07	648.89
573.27	645.30
573.48	643.23
573.68	640.44
573.89	634.29
574.09	635.99
574.30	632.45
574.50	629.77
574.70	623.66
574.91	617.89
575.11	613.65
575.32	609.18
575.52	603.00
575.73	600.02
575.93	595.49
576.14	590.58
576.34	587.12
576.54	582.01
576.75	575.74
576.95	574.05
577.16	571.63
577.36	566.21
577.57	563.51
577.77	559.21
577.97	555.87
578.18	552.04
578.38	552.75
578.59	545.02
578.79	541.15
579.00	536.47
579.20	532.30
579.40	525.60
579.61	520.17
579.81	514.04
580.02	509.50
580.22	505.22
580.42	500.82
580.63	488.85
580.83	481.57
581.04	477.07
581.24	473.16
581.45	466.12
581.65	459.92
581.85	452.55
582.06	445.53
582.26	440.87
582.47	436.29
582.67	430.24
582.87	426.16
583.08	424.10
583.28	422.78
583.48	415.46
583.69	409.48
583.89	409.02
584.10	402.69
584.30	396.86
584.50	393.28
584.71	385.30
584.91	380.44
585.12	380.59
585.32	375.36
585.52	367.67
585.73	367.52
585.93	362.84
586.13	354.65
586.34	351.58
586.54	350.67
586.75	344.24
586.95	340.06
587.15	332.89
587.36	328.79
587.56	324.03
587.76	318.48
587.97	311.76
588.17	306.62
588.37	302.11
588.58	298.67
588.78	297.55
588.98	294.48
589.19	293.03
589.39	293.01
589.60	285.23
589.80	284.03
590.00	280.65
590.21	275.21
590.41	272.53
590.61	272.66
590.82	269.18
591.02	262.81
591.22	260.67
591.43	256.31
591.63	251.97
591.83	252.68
592.04	245.51
592.24	237.42
592.44	232.91
592.65	229.67
592.85	224.96
593.05	223.55
593.26	217.07
593.46	214.81
593.66	210.25
593.86	209.77
594.07	206.44
594.27	206.99
594.47	223.10
594.68	223.64
594.88	219.62
595.08	215.17
595.29	212.00
595.49	210.36
595.69	203.61
595.90	202.51
596.10	194.72
596.30	189.47
596.50	183.55
596.71	167.54
596.91	162.48
597.11	164.54
597.32	165.55
597.52	160.24
597.72	161.60
597.93	160.34
598.13	158.53
598.33	161.21
598.53	159.15
598.74	159.63
598.94	158.51
599.14	159.16
599.35	155.68
599.55	151.68
599.75	154.68
599.95	149.74
600.16	147.62
600.36	143.34
600.56	138.85
600.76	137.49
600.97	138.48
601.17	134.96
601.37	129.49
601.58	128.30
601.78	123.55
601.98	120.36
602.18	121.93
602.39	120.38
602.59	119.15
602.79	118.28
602.99	116.75
603.20	112.27
603.40	109.85
603.60	109.03
603.80	107.83
604.01	109.83
604.21	104.28
604.41	103.78
604.61	104.67
604.82	101.65
605.02	101.08
605.22	100.13
605.42	97.71
605.62	97.39
605.83	96.65
606.03	93.59
606.23	90.07
606.43	91.43
606.64	88.34
606.84	91.25
607.04	95.49
607.24	93.98
607.45	93.41
607.65	93.95
607.85	93.22
608.05	96.22
608.25	101.06
608.46	104.33
608.66	107.37
608.86	109.68
609.06	104.32
609.26	103.20
609.47	103.27
609.67	106.20
609.87	104.13
610.07	103.11
610.28	103.22
610.48	97.28
610.68	96.52
610.88	92.85
611.08	92.55
611.29	90.78
611.49	87.95
611.69	84.95
611.89	81.12
612.09	80.97
612.29	82.09
612.50	73.62
612.70	75.48
612.90	75.77
613.10	76.02
613.30	73.47
613.51	74.53
613.71	75.40
613.91	73.19
614.11	70.41
614.31	72.16
614.51	71.64
614.72	72.93
614.92	74.53
615.12	70.17
615.32	69.13
615.52	68.25
615.72	67.42
615.93	65.07
616.13	67.64
616.33	67.81
616.53	64.47
616.73	63.26
616.93	64.70
617.14	60.68
617.34	61.59
617.54	61.38
617.74	59.69
617.94	58.76
618.14	60.42
618.34	59.52
618.55	60.45
618.75	61.14
618.95	61.12
619.15	60.62
619.35	61.07
619.55	59.13
619.75	60.19
619.96	61.31
620.16	63.23
620.36	57.88
620.56	59.56
620.76	56.30
620.96	55.48
621.16	55.54
621.36	57.10
621.57	55.07
621.77	56.91
621.97	54.35
622.17	51.33
622.37	52.86
622.57	57.90
622.77	52.33
622.97	52.56
623.18	52.22
623.38	51.35
623.58	51.14
623.78	54.05
623.98	54.53
624.18	55.54
624.38	57.49
624.58	56.15
624.78	56.88
624.98	60.53
625.19	62.37
625.39	62.26
625.59	58.57
625.79	58.35
625.99	56.58
626.19	53.84
626.39	53.92
626.59	51.35
626.79	49.80
626.99	45.50
627.19	47.48
627.40	50.75
627.60	49.91
627.80	52.30
628.00	52.20
628.20	51.63
628.40	55.05
628.60	51.27
628.80	52.84
629.00	52.67
629.20	54.72
629.40	53.86
629.60	48.09
629.80	48.76
630.00	50.31
630.20	49.15
630.41	51.96
630.61	49.88
630.81	52.00
631.01	57.27
631.21	59.88
631.41	59.24
631.61	59.86
631.81	60.51
632.01	63.97
632.21	63.71
632.41	62.03
632.61	59.56
632.81	57.62
633.01	59.74
633.21	55.65
633.41	52.30
633.61	52.41
633.81	50.45
634.01	53.27
634.21	49.75
634.41	48.72
634.61	50.36
634.81	50.32
635.01	51.26
635.22	51.55
635.42	48.59
635.62	49.62
635.82	50.21
636.02	54.12
636.22	53.55
636.42	55.78
636.62	55.18
636.82	58.83
637.02	57.70
637.22	57.29
637.42	56.58
637.62	59.19
637.82	55.24
638.02	56.97
638.22	54.27
638.42	54.40
638.62	53.55
638.82	53.64
639.02	51.05
639.22	53.34
639.42	53.45
639.62	52.39
639.82	50.38
640.02	54.22
640.22	50.03
640.42	47.18
640.62	45.76
640.82	43.06
641.02	44.48
641.22	44.46
641.42	43.27
641.61	44.85
641.81	45.41
642.01	48.18
642.21	47.16
642.41	47.79
642.61	47.66
642.81	48.57
643.01	51.27
643.21	50.70
643.41	51.37
643.61	52.33
643.81	50.57
644.01	48.89
644.21	46.51
644.41	46.77
644.61	48.57
644.81	50.88
645.01	52.74
645.21	53.01
645.41	51.20
645.61	49.93
645.81	49.64
646.01	49.02
646.21	52.39
646.40	54.38
646.60	56.49
646.80	54.25
647.00	54.62
647.20	48.74
647.40	49.91
647.60	50.92
647.80	47.31
648.00	48.41
648.20	53.25
648.40	53.47
648.60	50.83
648.80	48.15
649.00	50.68
649.20	50.53
649.39	54.57
649.59	51.85
649.79	52.37
649.99	54.68
650.19	53.12
650.39	51.79
650.59	48.41
650.79	50.08
650.99	50.29
651.19	48.63
651.39	50.72
651.58	49.93
651.78	49.82
651.98	49.93
652.18	49.65
652.38	50.92
652.58	48.85
652.78	47.20
652.98	45.82
653.18	46.02
653.38	45.09
653.57	41.05
653.77	40.08
653.97	39.49
654.17	38.28
654.37	39.12
654.57	36.34
654.77	34.74
654.97	37.65
655.16	39.13
655.36	40.08
655.56	41.28
655.76	42.75
655.96	46.23
656.16	46.08
656.36	46.68
656.56	47.03
656.75	49.36
656.95	51.16
657.15	51.76
657.35	51.31
657.55	48.26
657.75	47.27
657.95	47.07
658.14	44.11
658.34	46.30
658.54	47.46
658.74	47.31
658.94	46.02
659.14	46.06
659.34	46.97
659.53	47.33
659.73	47.68
659.93	49.30
660.13	53.36
660.33	54.62
660.53	55.20
660.72	53.27
660.92	54.23
661.12	54.33
661.32	53.82
661.52	53.12
661.72	54.08
661.91	58.22
662.11	58.76
662.31	54.53
662.51	52.74
662.71	51.91
662.90	52.58
663.10	52.13
663.30	51.91
663.50	52.28
663.70	50.79
663.90	48.82
664.09	48.31
664.29	47.87
664.49	51.29
664.69	53.64
664.89	49.36
665.08	50.98
665.28	49.73
665.48	50.19
665.68	50.49
665.88	50.49
666.07	48.00
666.27	44.98
666.47	44.59
666.67	42.97
666.87	42.67
667.06	46.99
667.26	46.45
667.46	45.02
667.66	45.65
667.85	45.13
668.05	45.58
668.25	48.50
668.45	49.54
668.65	49.93
668.84	50.90
669.04	49.78
669.24	49.64
669.44	47.21
669.63	48.50
669.83	49.45
670.03	47.83
670.23	45.20
670.42	43.58
670.62	42.52
670.82	43.55
671.02	40.18
671.22	39.34
671.41	36.70
671.61	36.66
671.81	37.98
672.01	36.62
672.20	36.79
672.40	40.61
672.60	43.27
672.80	43.75
672.99	45.84
673.19	46.73
673.39	47.40
673.58	51.33
673.78	50.86
673.98	51.22
674.18	53.95
674.37	55.05
674.57	51.57
674.77	50.44
674.97	46.41
675.16	40.59
675.36	38.52
675.56	39.40
675.75	35.60
675.95	36.04
676.15	37.48
676.35	35.11
676.54	36.57
676.74	37.31
676.94	38.02
677.13	44.52
677.33	46.30
677.53	49.06
677.73	49.04
677.92	52.07
678.12	55.63
678.32	54.79
678.51	53.77
678.71	55.33
678.91	59.15
679.11	60.06
679.30	60.71
679.50	63.19
679.70	60.77
679.89	58.78
680.09	58.26
680.29	57.44
680.48	56.90
680.68	56.91
680.88	54.62
681.07	51.59
681.27	48.65
681.47	45.45
681.66	42.75
681.86	44.46
682.06	46.66
682.25	46.81
682.45	44.33
682.65	43.62
682.84	40.90
683.04	39.58
683.24	39.36
683.43	42.99
683.63	41.85
683.83	42.43
684.02	41.03
684.22	39.36
684.42	36.92
684.61	37.50
684.81	36.96
685.01	40.42
685.20	40.85
685.40	41.54
685.60	37.65
685.79	39.25
685.99	40.21
686.19	41.31
686.38	42.82
686.58	44.01
686.77	47.23
686.97	48.39
687.17	45.78
687.36	45.86
687.56	45.60
687.76	45.33
687.95	42.99
688.15	43.49
688.34	45.43
688.54	43.86
688.74	44.57
688.93	43.17
689.13	43.75
689.33	44.78
689.52	45.28
689.72	45.50
689.91	47.49
690.11	47.72
690.31	46.34
690.50	47.29
690.70	49.91
690.89	48.20
691.09	45.61
691.29	44.81
691.48	44.42
691.68	44.91
691.87	45.33
692.07	46.27
692.27	47.70
692.46	46.08
692.66	45.46
692.85	42.47
693.05	44.39
693.25	46.69
693.44	45.89
693.64	49.17
693.83	48.05
694.03	48.22
694.22	47.48
694.42	49.13
694.62	49.24
694.81	46.99
695.01	49.73
695.20	47.94
695.40	47.74
695.59	49.06
695.79	45.61
695.99	45.86
696.18	44.27
696.38	43.92
696.57	46.51
696.77	48.63
696.96	45.86
697.16	44.96
697.36	46.04
697.55	44.81
697.75	46.34
697.94	47.77
698.14	47.51
698.33	47.81
698.53	49.62
698.72	48.54
698.92	47.81
699.11	52.11
699.31	54.94
699.51	55.24
699.70	55.48
699.90	54.64
700.09	53.28
700.29	54.12
700.48	53.21
700.68	54.40
700.87	54.89
701.07	55.89
701.26	54.29
701.46	50.94
701.65	51.26
701.85	51.70
702.04	48.09
702.24	51.22
702.43	50.88
702.63	54.14
702.82	48.50
703.02	42.28
703.21	41.72
703.41	40.16
703.60	40.75
703.80	38.99
703.99	39.51
704.19	40.44
704.38	38.02
704.58	37.14
704.77	33.47
704.97	37.11
705.16	42.50
705.36	41.33
705.55	42.95
705.75	41.59
705.94	40.66
706.14	44.35
706.33	45.37
706.53	46.28
706.72	45.76
706.92	45.74
707.11	46.25
707.31	42.90
707.50	45.26
707.70	41.70
707.89	40.81
708.09	45.46
708.28	42.10
708.48	41.63
708.67	42.00
708.86	44.14
709.06	45.54
709.25	44.63
709.45	44.91
709.64	42.56
709.84	44.12
710.03	45.11
710.23	40.33
710.42	40.42
710.62	39.82
710.81	38.11
711.00	36.03
711.20	36.04
711.39	37.98
711.59	40.03
711.78	37.46
711.98	40.75
712.17	43.96
712.37	44.09
712.56	43.85
712.75	43.73
712.95	44.48
713.14	47.62
713.34	46.43
713.53	41.95
713.73	39.56
713.92	43.36
714.11	42.28
714.31	37.94
714.50	38.50
714.70	38.73
714.89	41.13
715.08	39.10
715.28	36.57
715.47	37.24
715.67	40.27
715.86	38.41
716.06	37.94
716.25	34.33
716.44	31.09
716.64	31.93
716.83	31.69
717.03	27.35
717.22	30.83
717.41	31.02
717.61	30.37
717.80	28.49
717.99	34.31
718.19	32.60
718.38	37.53
718.58	42.62
718.77	43.10
718.96	40.08
719.16	45.78
719.35	43.98
719.55	45.26
719.74	48.00
719.93	47.51
720.13	42.71
720.32	41.70
720.51	40.85
720.71	39.04
720.90	39.47
721.10	43.17
721.29	39.58
721.48	40.75
721.68	38.67
721.87	38.13
722.06	39.90
722.26	41.18
722.45	42.78
722.64	40.79
722.84	40.46
723.03	38.22
723.22	39.00
723.42	38.74
723.61	37.14
723.80	39.32
724.00	38.00
724.19	38.95
724.38	41.03
724.58	42.82
724.77	43.36
724.96	43.25
725.16	44.94
725.35	45.67
725.54	48.63
725.74	48.33
725.93	46.14
726.12	47.98
726.32	47.61
726.51	49.54
726.70	49.28
726.90	49.75
727.09	52.20
727.28	51.22
727.48	47.38
727.67	44.98
727.86	48.93
728.06	50.45
728.25	49.47
728.44	48.78
728.64	44.09
728.83	42.88
729.02	41.37
729.21	41.31
729.41	41.54
729.60	41.46
729.79	46.45
729.99	45.06
730.18	44.52
730.37	43.96
730.56	45.37
730.76	46.23
730.95	45.43
731.14	46.88
731.34	43.90
731.53	46.45
731.72	46.94
731.91	43.16
732.11	42.02
732.30	41.61
732.49	39.17
732.69	36.77
732.88	34.11
733.07	35.62
733.26	34.00
733.46	33.51
733.65	30.40
733.84	30.76
734.03	29.16
734.23	28.73
734.42	27.83
734.61	28.04
734.80	29.88
735.00	33.85
735.19	31.67
735.38	33.38
735.57	35.84
735.77	37.20
735.96	36.55
736.15	36.58
736.34	35.02
736.54	34.89
736.73	37.52
736.92	34.96
737.11	34.54
737.31	37.87
737.50	35.17
737.69	36.01
737.88	35.08
738.07	33.40
738.27	34.69
738.46	35.99
738.65	37.72
738.84	36.10
739.04	37.29
739.23	36.10
739.42	32.75
739.61	36.88
739.80	36.84
740.00	37.70
740.19	37.37
740.38	37.03
740.57	38.11
740.76	39.32
740.96	40.64
741.15	40.51
741.34	39.75
741.53	41.33
741.72	38.39
741.92	35.08
742.11	35.34
742.30	34.57
742.49	31.89
742.68	28.32
742.88	26.60
743.07	24.54
743.26	25.99
743.45	26.51
743.64	30.65
743.84	33.21
744.03	36.77
744.22	35.78
744.41	37.52
744.60	37.52
744.79	38.05
744.99	37.11
745.18	36.92
745.37	35.11
745.56	35.36
745.75	28.86
745.94	28.30
746.14	25.86
746.33	25.17
746.52	27.05
746.71	26.74
746.90	29.81
747.09	30.68
747.28	34.35
747.48	36.66
747.67	36.58
747.86	38.04
748.05	35.32
748.24	33.40
748.43	33.61
748.62	31.82
748.82	32.41
749.01	30.72
749.20	28.78
749.39	24.07
749.58	21.24
749.77	21.02
749.96	20.09
750.16	20.41
750.35	24.45
750.54	24.97
750.73	25.88
750.92	29.77
751.11	29.21
751.30	29.04
751.49	29.62
751.68	29.23
751.88	29.81
752.07	32.90
752.26	34.63
752.45	31.43
752.64	31.00
752.83	31.72
753.02	29.57
753.21	29.97
753.40	32.66
753.60	35.62
753.79	36.01
753.98	34.57
754.17	33.61
754.36	32.97
754.55	35.52
754.74	34.95
754.93	35.82
755.12	35.17
755.31	34.42
755.50	32.19
755.70	32.43
755.89	35.00
756.08	32.79
756.27	31.05
756.46	32.26
756.65	31.67
756.84	31.63
757.03	31.52
757.22	29.53
757.41	30.87
757.60	33.07
757.79	31.97
757.98	29.62
758.17	32.58
758.36	34.09
758.56	32.04
758.75	31.80
758.94	31.71
759.13	30.22
759.32	33.21
759.51	32.28
759.70	29.19
759.89	29.06
760.08	30.29
760.27	27.87
760.46	26.14
760.65	26.70
760.84	28.54
761.03	26.31
761.22	27.61
761.41	22.02
761.60	22.30
761.79	24.22
761.98	25.93
762.17	24.22
762.36	29.92
762.55	30.20
762.74	30.51
762.93	30.48
763.12	32.21
763.31	30.96
763.50	37.25
763.69	37.81
763.88	36.23
764.07	34.93
764.26	32.99
764.45	28.93
764.64	29.49
764.83	30.33
765.02	28.11
765.21	29.96
765.40	30.79
765.59	28.02
765.78	28.39
765.97	30.09
766.16	26.16
766.35	29.25
766.54	29.86
766.73	28.13
766.92	27.20
767.11	28.49
767.30	27.50
767.49	23.66
767.68	25.49
767.87	23.12
768.06	24.04
768.25	27.65
768.44	24.26
768.63	25.15
768.82	30.53
769.01	33.23
769.20	33.94
769.39	34.91
769.58	35.58
769.77	36.30
769.96	37.89
770.15	37.31
770.34	35.21
770.53	39.81
770.72	38.24
770.91	32.38
771.10	28.49
771.29	26.21
771.47	25.49
771.66	28.63
771.85	28.37
772.04	25.67
772.23	25.62
772.42	28.15
772.61	26.66
772.80	26.21
772.99	27.54
773.18	26.62
773.37	26.79
773.56	25.69
773.75	25.26
773.94	21.54
774.13	23.35
774.31	23.27
774.50	22.73
774.69	21.24
774.88	20.74
775.07	24.31
775.26	24.97
775.45	27.16
775.64	28.78
775.83	29.32
776.02	32.95
776.21	34.69
776.40	35.91
776.58	35.26
776.77	37.01
776.96	38.73
777.15	36.47
777.34	35.78
777.53	33.87
777.72	33.21
777.91	33.79
778.10	32.43
778.28	31.04
778.47	29.29
778.66	29.23
778.85	29.88
779.04	28.00
779.23	24.11
779.42	23.12
779.61	19.70
779.79	20.83
779.98	19.46
780.17	18.38
780.36	17.00
780.55	18.23
780.74	17.54
780.93	14.69
781.12	16.35
781.30	21.28
781.49	24.65
781.68	27.93
781.87	28.19
782.06	27.96
782.25	29.70
782.44	33.55
782.62	34.80
782.81	33.16
783.00	34.63
783.19	35.06
783.38	36.29
783.57	36.49
783.75	33.20
783.94	31.48
784.13	31.45
784.32	30.65
784.51	27.42
784.70	24.13
784.88	26.29
785.07	24.87
785.26	26.98
785.45	24.31
785.64	22.97
785.83	23.10
786.01	24.84
786.20	25.38
786.39	26.79
786.58	26.33
786.77	26.75
786.95	24.95
787.14	26.40
787.33	24.84
787.52	25.95
787.71	27.42
787.90	31.76
788.08	31.28
788.27	29.81
788.46	30.46
788.65	31.17
788.84	32.30
789.02	31.11
789.21	31.63
789.40	31.24
789.59	30.03
789.77	28.50
789.96	25.36
790.15	23.61
790.34	21.89
790.53	18.58
790.71	20.41
790.90	20.29
791.09	22.40
791.28	20.22
791.46	17.95
791.65	15.83
791.84	15.97
792.03	16.42
792.22	16.48
792.40	19.05
792.59	20.09
792.78	18.00
792.97	19.01
793.15	19.08
793.34	19.96
793.53	22.10
793.72	24.39
793.90	24.20
794.09	26.49
794.28	25.21
794.47	23.20
794.65	21.00
794.84	21.00
795.03	19.85
795.22	21.32
795.40	24.39
795.59	23.20
795.78	23.37
795.97	23.64
796.15	23.87
796.34	26.25
796.53	29.51
796.71	30.18
796.90	30.57
797.09	28.86
797.28	27.93
797.46	25.13
797.65	25.21
797.84	23.66
798.02	24.37
798.21	23.22
798.40	21.73
798.59	18.34
798.77	20.00
798.96	20.41
799.15	21.58
799.33	22.40
799.52	27.05
799.71	26.31
799.90	26.98
800.08	25.06
800.27	25.15
800.46	25.47
800.64	28.76
800.83	28.41
801.02	28.60
801.20	27.91
801.39	26.70
801.58	24.20
801.76	25.79
801.95	28.76
802.14	26.72
802.32	24.65
802.51	25.71
802.70	23.25
802.88	22.51
803.07	22.32
803.26	22.32
803.44	21.62
803.63	18.99
803.82	16.01
804.00	11.90
804.19	15.42
804.38	18.90
804.56	16.68
804.75	17.46
804.94	16.10
805.12	15.23
805.31	16.70
805.50	17.37
805.68	14.22
805.87	18.21
806.06	19.60
806.24	20.68
806.43	20.44
806.62	22.66
806.80	22.97
806.99	24.48
807.17	23.89
807.36	23.89
807.55	23.46
807.73	29.21
807.92	29.92
808.11	30.01
808.29	28.15
808.48	26.08
808.66	25.80
808.85	23.83
809.04	21.99
809.22	25.82
809.41	23.55
809.59	24.13
809.78	21.41
809.97	19.05
810.15	17.22
810.34	15.86
810.53	15.62
810.71	14.45
810.90	14.47
811.08	16.38
811.27	9.90
811.45	10.59
811.64	11.90
811.83	12.38
812.01	11.19
812.20	14.26
812.38	16.09
812.57	15.32
812.76	15.62
812.94	17.58
813.13	19.96
813.31	25.26
813.50	23.51
813.68	21.95
813.87	20.74
814.06	21.56
814.24	19.94
814.43	17.58
814.61	20.20
814.80	22.84
814.98	19.60
815.17	15.83
815.36	12.34
815.54	14.82
815.73	15.32
815.91	16.66
816.10	16.98
816.28	17.97
816.47	19.87
816.65	20.61
816.84	18.69
817.03	20.57
817.21	22.86
817.40	24.13
817.58	21.93
817.77	18.45
817.95	15.23
818.14	16.44
818.32	14.73
818.51	13.33
818.69	11.34
818.88	8.77
819.06	10.07
819.25	6.87
819.43	5.25
819.62	5.12
819.80	7.21
819.99	8.62
820.18	5.79
820.36	8.08
820.55	8.68
820.73	9.16
820.92	10.84
821.10	10.28
821.29	10.80
821.47	12.81
821.66	14.32
821.84	15.60
822.03	15.45
822.21	17.24
822.40	15.15
822.58	13.76
822.77	14.30
822.95	11.60
823.14	10.43
823.32	14.19
823.50	11.38
823.69	12.16
823.87	10.71
824.06	11.04
824.24	9.81
824.43	11.60
824.61	17.05
824.80	15.40
824.98	15.62
825.17	18.51
825.35	15.79
825.54	15.92
825.72	14.76
825.91	15.88
826.09	16.14
826.28	15.10
826.46	13.00
826.64	9.35
826.83	9.36
827.01	10.76
827.20	5.57
827.38	8.51
827.57	9.94
827.75	9.63
827.94	9.01
828.12	10.04
828.31	9.90
828.49	10.54
828.67	8.77
828.86	10.59
829.04	10.76
829.23	14.39
829.41	13.98
829.60	14.43
829.78	17.67
829.96	16.98
830.15	16.22
830.33	16.55
830.52	16.98
830.70	18.32
830.88	18.28
831.07	20.67
831.25	18.00
831.44	15.36
831.62	17.15
831.81	13.57
831.99	15.79
832.17	18.21
832.36	18.52
832.54	19.08
832.73	19.77
832.91	17.56
833.09	15.30
833.28	13.68
833.46	15.88
833.65	16.03
833.83	17.37
834.01	17.46
834.20	16.33
834.38	19.36
834.56	17.48
834.75	16.74
834.93	18.19
835.12	18.47
835.30	20.14
835.48	16.48
835.67	15.36
835.85	13.54
836.03	11.38
836.22	9.31
836.40	7.84
836.59	5.40
836.77	6.37
836.95	7.45
837.14	9.50
837.32	13.39
837.50	15.01
837.69	13.78
837.87	14.09
838.05	12.79
838.24	12.44
838.42	11.06
838.60	11.26
838.79	10.05
838.97	7.56
839.15	5.18
839.34	0.91
839.52	1.04
839.70	0.91
839.89	3.52
840.07	7.15
840.25	5.66
840.44	7.47
840.62	10.82
840.80	11.62
840.99	11.26
841.17	10.50
841.35	13.72
841.54	14.19
841.72	16.20
841.90	12.38
842.09	10.15
842.27	11.43
842.45	11.25
842.64	10.41
842.82	9.59
843.00	9.61
843.19	10.33
843.37	10.87
843.55	8.38
843.73	5.25
843.92	4.43
844.10	5.60
844.28	6.01
844.47	5.23
844.65	4.60
844.83	5.88
845.01	6.05
845.20	7.52
845.38	3.87
845.56	5.46
845.75	6.22
845.93	11.56
846.11	7.76
846.29	7.95
846.48	11.26
846.66	11.13
846.84	7.43
847.02	7.39
847.21	6.14
847.39	10.35
847.57	9.90
847.76	11.39
847.94	7.75
848.12	9.85
848.30	9.01
848.49	6.11
848.67	10.46
848.85	10.82
849.03	8.99
849.22	9.70
849.40	3.03
849.58	4.08
849.76	4.23
849.95	4.65
850.13	3.95
850.31	7.37
850.49	10.02
850.67	4.93
850.86	9.98
851.04	13.46
851.22	13.52
851.40	17.26
851.59	17.85
851.77	15.73
851.95	16.68
852.13	15.69
852.31	13.59
852.50	13.01
852.68	13.14
852.86	9.87
853.04	6.85
853.23	5.25
853.41	5.79
853.59	4.10
853.77	3.82
853.95	2.77
854.14	7.09
854.32	6.40
854.50	3.24
854.68	4.86
854.86	4.24
855.04	5.16
855.23	6.26
855.41	6.39
855.59	7.30
855.77	11.02
855.95	13.29
856.14	11.86
856.32	13.46
856.50	15.02
856.68	13.52
856.86	14.41
857.04	12.59
857.23	10.31
857.41	10.56
857.59	8.40
857.77	5.34
857.95	1.81
858.13	2.35
858.32	3.69
858.50	4.15
858.68	6.31
858.86	8.17
859.04	8.12
859.22	11.75
859.41	9.57
859.59	12.36
859.77	11.08
859.95	16.29
860.13	17.67
860.31	15.79
860.49	12.59
860.68	12.66
860.86	11.47
861.04	15.64
861.22	13.68
861.40	15.25
861.58	14.13
861.76	16.57
861.94	11.60
862.13	9.46
862.31	9.36
862.49	12.51
862.67	9.40
862.85	7.39
863.03	5.73
863.21	3.67
863.39	3.69
863.57	0.37
863.76	2.66
863.94	5.27
864.12	6.31
864.30	8.14
864.48	7.06
864.66	12.10
864.84	13.40
865.02	14.76
865.20	15.66
865.38	17.89
865.57	21.39
865.75	19.98
865.93	17.69
866.11	16.92
866.29	17.05
866.47	16.85
866.65	14.37
866.83	14.65
867.01	11.30
867.19	11.38
867.37	7.48
867.55	8.66
867.73	7.32
867.92	8.45
868.10	9.18
868.28	6.11
868.46	4.19
868.64	1.49
868.82	0.32
869.00	1.56
869.18	3.20
869.36	3.50
869.54	3.65
869.72	5.85
869.90	3.59
870.08	2.35
870.26	0.06
870.44	-0.52
870.62	2.98
870.80	4.67
870.98	5.08
871.16	3.02
871.34	4.54
871.53	0.84
871.71	-3.54
871.89	-1.01
872.07	1.08
872.25	4.93
872.43	5.44
872.61	1.23
872.79	1.99
872.97	3.22
873.15	4.19
873.33	2.38
873.51	4.00
873.69	8.55
873.87	9.14
874.05	7.09
874.23	7.30
874.41	8.69
874.59	10.24
874.77	8.23
874.95	5.42
875.13	7.56
875.31	9.53
875.49	10.02
875.67	5.36
875.85	2.36
876.03	1.43
876.21	-1.17
876.39	0.95
876.57	2.16
876.75	3.11
876.93	4.62
877.11	4.36
877.29	4.11
877.47	8.82
877.65	10.63
877.82	10.07
878.00	10.44
878.18	13.57
878.36	12.53
878.54	12.47
878.72	11.02
878.90	12.21
879.08	9.74
879.26	6.14
879.44	0.89
879.62	2.38
879.80	4.88
879.98	5.98
880.16	5.12
880.34	4.28
880.52	1.43
880.70	0.35
880.88	0.69
881.06	4.28
881.24	7.54
881.42	7.78
881.59	6.57
881.77	5.96
881.95	5.34
882.13	0.67
882.31	2.89
882.49	4.49
882.67	6.53
882.85	3.52
883.03	1.68
883.21	1.15
883.39	3.18
883.57	2.55
883.75	1.88
883.92	1.95
884.10	5.34
884.28	5.72
884.46	6.44
884.64	6.89
884.82	9.96
885.00	11.80
885.18	13.46
885.36	9.33
885.54	10.91
885.71	11.11
885.89	11.58
886.07	13.42
886.25	14.22
886.43	11.95
886.61	11.02
886.79	11.21
886.97	9.59
887.15	8.97
887.32	13.29
887.50	11.58
887.68	12.46
887.86	12.55
888.04	10.57
888.22	8.25
888.40	8.30
888.57	10.30
888.75	6.40
888.93	7.75
889.11	7.22
889.29	5.29
889.47	6.68
889.65	5.70
889.82	6.27
890.00	6.29
890.18	6.11
890.36	7.61
890.54	7.56
890.72	9.81
890.90	10.56
891.07	6.22
891.25	4.43
891.43	6.72
891.61	8.66
891.79	9.07
891.97	8.79
892.14	8.60
892.32	10.54
892.50	10.91
892.68	9.46
892.86	6.31
893.03	10.85
893.21	12.62
893.39	7.45
893.57	7.45
893.75	6.11
893.93	4.51
894.10	4.99
894.28	5.94
894.46	4.47
894.64	1.75
894.82	2.59
894.99	0.02
895.17	-1.47
895.35	-0.17
895.53	-0.28
895.71	-1.27
895.88	0.89
896.06	-2.25
896.24	-2.46
896.42	-1.77
896.59	3.41
896.77	4.32
896.95	7.43
897.13	7.80
897.31	11.21
897.48	9.07
897.66	10.22
897.84	8.38
898.02	10.54
898.19	7.52
898.37	4.80
898.55	4.92
898.73	4.21
898.91	2.18
899.08	3.05
899.26	2.96
899.44	3.97
899.62	2.59
899.79	4.51
899.97	3.82
900.15	4.51
900.33	4.54
900.50	3.15
900.68	1.30
900.86	4.02
901.04	5.16
901.21	5.19
901.39	5.81
901.57	8.97
901.74	10.93
901.92	11.77
902.10	12.08
902.28	12.77
902.45	10.09
902.63	12.59
902.81	11.73
902.99	12.47
903.16	12.64
903.34	12.05
903.52	10.78
903.69	9.27
903.87	8.34
904.05	7.47
904.22	8.12
904.40	11.23
904.58	9.44
904.76	8.15
904.93	7.93
905.11	5.25
905.29	7.78
905.46	7.99
905.64	6.52
905.82	6.22
905.99	4.88
906.17	4.11
906.35	3.80
906.53	3.89
906.70	1.82
906.88	-0.58
907.06	0.00
907.23	-1.79
907.41	-7.17
907.59	-3.93
907.76	-4.15
907.94	-0.37
908.12	0.04
908.29	0.61
908.47	1.19
908.65	2.77
908.82	5.16
909.00	4.52
909.18	4.26
909.35	8.36
909.53	5.40
909.71	4.58
909.88	2.63
910.06	6.29
910.23	8.23
910.41	9.16
910.59	9.87
910.76	9.31
910.94	12.38
911.12	14.32
911.29	14.75
911.47	14.43
911.65	15.53
911.82	14.45
912.00	10.76
912.17	9.20
912.35	9.48
912.53	8.30
912.70	6.27
912.88	3.82
913.06	1.95
913.23	0.78
913.41	0.71
913.58	3.87
913.76	5.06
913.94	6.52
914.11	8.12
914.29	5.94
914.46	6.89
914.64	11.73
914.82	12.14
914.99	14.58
915.17	15.32
915.34	18.75
915.52	16.05
915.70	15.10
915.87	15.29
916.05	11.58
916.22	12.05
916.40	14.65
916.57	9.64
916.75	10.50
916.93	7.65
917.10	10.91
917.28	6.96
917.45	8.81
917.63	11.92
917.80	8.10
917.98	9.92
918.16	10.85
918.33	8.01
918.51	10.17
918.68	10.07
918.86	10.22
919.03	3.65
919.21	6.01
919.39	6.87
919.56	2.36
919.74	3.76
919.91	2.77
920.09	-1.27
920.26	-1.60
920.44	-4.43
920.61	-7.58
920.79	-7.84
920.96	-4.93
921.14	-6.67
921.31	-9.63
921.49	-7.11
921.67	-6.14
921.84	-5.60
922.02	-1.71
922.19	-1.86
922.37	-1.30
922.54	0.56
922.72	-0.13
922.89	0.52
923.07	2.33
923.24	3.63
923.42	0.34
923.59	1.41
923.77	4.47
923.94	4.47
924.12	2.42
924.29	5.90
924.47	6.16
924.64	9.31
924.82	10.56
924.99	11.54
925.17	8.30
925.34	10.46
925.52	9.53
925.69	4.77
925.87	3.30
926.04	3.76
926.22	3.48
926.39	3.07
926.57	2.66
926.74	1.88
926.91	1.71
927.09	2.38
927.26	3.78
927.44	2.27
927.61	5.44
927.79	6.46
927.96	9.44
928.14	6.11
928.31	9.61
928.49	6.80
928.66	6.53
928.84	3.03
929.01	3.93
929.18	4.08
929.36	6.59
929.53	6.52
929.71	8.28
929.88	10.02
930.06	11.30
930.23	6.83
930.41	6.48
930.58	6.29
930.75	10.69
930.93	11.54
931.10	10.35
931.28	7.22
931.45	5.25
931.63	4.65
931.80	0.00
931.97	-1.69
932.15	-0.63
932.32	2.70
932.50	1.97
932.67	-0.34
932.84	0.24
933.02	2.81
933.19	6.01
933.37	6.63
933.54	3.31
933.71	8.94
933.89	12.53
934.06	12.06
934.24	9.92
934.41	13.27
934.58	12.92
934.76	12.79
934.93	11.99
935.11	10.87
935.28	9.76
935.45	8.60
935.63	7.91
935.80	5.64
935.98	8.25
936.15	7.37
936.32	2.10
936.50	4.60
936.67	2.79
936.84	3.15
937.02	3.61
937.19	4.32
937.36	5.16
937.54	1.19
937.71	0.39
937.89	-2.87
938.06	-2.55
938.23	-1.49
938.41	-2.76
938.58	-1.17
938.75	-2.48
938.93	-1.77
939.10	-1.95
939.27	-0.04
939.45	2.42
939.62	4.77
939.79	4.82
939.97	4.86
940.14	4.06
940.31	1.53
940.49	0.28
940.66	0.67
940.83	0.09
941.01	2.74
941.18	3.59
941.35	3.59
941.53	6.03
941.70	8.97
941.87	8.25
942.05	10.30
942.22	12.05
942.39	13.63
942.57	14.00
942.74	13.39
942.91	10.20
943.08	9.33
943.26	9.53
943.43	4.45
943.60	1.51
943.78	3.33
943.95	4.41
944.12	5.32
944.29	5.23
944.47	3.61
944.64	1.66
944.81	2.29
944.99	5.10
945.16	2.66
945.33	2.49
945.50	5.98
945.68	7.24
945.85	4.69
946.02	3.65
946.20	2.66
946.37	2.55
946.54	6.52
946.71	8.62
946.89	5.73
947.06	8.14
947.23	9.38
947.40	7.86
947.58	6.68
947.75	7.69
947.92	9.07
948.09	8.64
948.27	10.63
948.44	8.62
948.61	5.36
948.78	4.95
948.96	4.54
949.13	5.42
949.30	6.07
949.47	3.17
949.65	0.65
949.82	-1.41
949.99	-1.30
950.16	-2.72
950.33	-3.46
950.51	-1.68
950.68	-0.17
950.85	-0.82
951.02	-0.65
951.20	-2.74
951.37	-2.09
951.54	0.91
951.71	2.49
951.88	2.18
952.06	1.55
952.23	2.96
952.40	3.48
952.57	3.18
952.74	3.69
952.92	2.23
953.09	3.50
953.26	4.10
953.43	2.70
953.60	1.23
953.77	3.35
953.95	4.13
954.12	1.40
954.29	0.89
954.46	1.53
954.63	1.06
954.81	1.79
954.98	2.27
955.15	2.35
955.32	2.31
955.49	1.12
955.66	-1.88
955.84	-1.55
956.01	0.80
956.18	1.47
956.35	0.11
956.52	0.45
956.69	-0.45
956.87	-1.23
957.04	-0.43
957.21	2.36
957.38	3.54
957.55	8.45
957.72	8.96
957.89	6.72
958.07	4.47
958.24	3.18
958.41	4.19
958.58	4.71
958.75	3.24
958.92	2.22
959.09	0.69
959.26	2.38
959.44	-1.14
959.61	-2.59
959.78	-1.68
959.95	1.43
960.12	0.39
960.29	-0.61
960.46	-2.87
960.63	-4.39
960.81	-6.61
960.98	-5.94
961.15	-7.47
961.32	-8.34
961.49	-7.41
961.66	-6.76
961.83	-8.14
962.00	-6.78
962.17	-8.81
962.34	-5.79
962.52	-3.69
962.69	-1.27
962.86	-0.39
963.03	-0.91
963.20	1.60
963.37	1.66
963.54	2.81
963.71	4.47
963.88	2.42
964.05	4.26
964.22	2.90
964.39	2.44
964.56	2.03
964.74	-1.06
964.91	0.15
965.08	-1.86
965.25	-2.83
965.42	-3.65
965.59	-7.43
965.76	-7.52
965.93	-7.26
966.10	-5.90
966.27	-5.77
966.44	-3.70
966.61	0.30
966.78	-0.84
966.95	-0.24
967.12	2.40
967.29	2.59
967.46	3.80
967.63	8.88
967.80	7.50
967.97	9.44
968.14	11.04
968.32	7.71
968.49	5.38
968.66	5.79
968.83	6.93
969.00	6.76
969.17	8.17
969.34	8.38
969.51	4.95
969.68	6.80
969.85	5.77
970.02	3.95
970.19	6.35
970.36	7.28
970.53	8.53
970.70	5.85
970.87	2.20
971.04	-0.82
971.21	-1.21
971.38	-0.95
971.55	-0.71
971.72	-2.25
971.89	-1.06
972.06	-2.89
972.23	-2.83
972.40	-2.79
972.57	-0.86
972.74	2.16
972.91	4.92
973.07	4.97
973.24	5.99
973.41	6.50
973.58	7.58
973.75	5.70
973.92	8.82
974.09	7.50
974.26	6.13
974.43	5.31
974.60	5.79
974.77	4.78
974.94	5.88
975.11	6.81
975.28	4.73
975.45	3.13
975.62	6.67
975.79	3.33
975.96	3.82
976.13	3.54
976.30	2.87
976.47	1.17
976.64	0.39
976.80	-0.84
976.97	-5.03
977.14	-7.39
977.31	-4.39
977.48	-6.57
977.65	-3.24
977.82	-5.44
977.99	-4.75
978.16	-2.63
978.33	-2.63
978.50	-1.95
978.67	-0.93
978.83	1.95
979.00	4.10
979.17	2.70
979.34	2.36
979.51	3.67
979.68	4.93
979.85	8.23
980.02	7.82
980.19	7.11
980.36	6.72
980.52	5.38
980.69	3.76
980.86	3.41
981.03	3.18
981.20	4.34
981.37	1.04
981.54	-1.04
981.71	-5.21
981.88	-7.04
982.04	-6.57
982.21	-7.17
982.38	-4.80
982.55	-3.39
982.72	0.52
982.89	-0.63
983.06	-4.23
983.22	-4.58
983.39	-0.74
983.56	-1.27
983.73	-2.44
983.90	-1.94
984.07	-0.24
984.24	-3.97
984.40	-1.34
984.57	-2.96
984.74	-1.38
984.91	-0.11
985.08	2.38
985.25	1.90
985.41	4.78
985.58	9.64
985.75	11.69
985.92	13.87
986.09	13.27
986.26	12.19
986.42	11.71
986.59	9.96
986.76	11.84
986.93	9.18
987.10	8.32
987.27	5.85
987.43	1.68
987.60	-0.61
987.77	-3.67
987.94	0.22
988.11	-0.54
988.27	0.19
988.44	2.42
988.61	4.08
988.78	6.40
988.95	7.63
989.11	6.27
989.28	7.84
989.45	5.47
989.62	4.11
989.79	4.36
989.95	3.78
990.12	-2.98
990.29	-2.83
990.46	-2.49
990.62	-2.44
990.79	-2.68
990.96	0.93
991.13	1.15
991.30	4.47
991.46	5.81
991.63	7.60
991.80	7.88
991.97	13.26
992.13	13.80
992.30	12.47
992.47	11.47
992.64	8.04
992.80	7.48
992.97	8.14
993.14	8.30
993.31	9.59
993.47	7.04
993.64	6.33
993.81	8.40
993.98	4.52
994.14	2.09
994.31	-0.63
994.48	-0.17
994.64	0.41
994.81	-0.41
994.98	-1.51
995.15	-0.60
995.31	0.34
995.48	-0.02
995.65	-0.99
995.82	2.14
995.98	1.53
996.15	4.19
996.32	6.39
996.48	4.24
996.65	6.07
996.82	7.06
996.99	4.56
997.15	2.74
997.32	5.81
997.49	5.81
997.65	3.54
997.82	7.43
997.99	6.74
998.15	8.58
998.32	10.43
998.49	7.28
998.65	6.61
998.82	3.59
998.99	4.71
999.15	2.23
999.32	0.04
999.49	1.88
999.65	-0.30
999.82	-3.07
999.99	-3.07
1000.15	-6.20
1000.32	-5.10
1000.49	-5.34
1000.65	-1.23
1000.82	-1.92
1000.99	-1.79
1001.15	0.24
1001.32	0.13
1001.49	2.20
1001.65	4.08
1001.82	1.49
1001.99	4.39
1002.15	6.48
1002.32	7.63
1002.49	6.24
1002.65	6.63
1002.82	7.65
1002.99	5.36
1003.15	5.51
1003.32	3.84
1003.48	4.88
1003.65	6.83
1003.82	5.51
1003.98	4.47
1004.15	2.25
1004.32	4.97
1004.48	6.87
1004.65	7.56
1004.81	9.07
1004.98	6.57
1005.15	7.41
1005.31	8.56
1005.48	10.09
1005.64	10.35
1005.81	10.65
1005.98	13.57
1006.14	11.34
1006.31	8.68
1006.47	8.25
1006.64	5.31
1006.81	7.54
1006.97	6.76
1007.14	5.44
1007.30	4.06
1007.47	4.92
1007.63	2.18
1007.80	-0.80
1007.97	0.02
1008.13	-0.56
1008.30	-0.60
1008.46	3.91
1008.63	3.74
1008.79	4.62
1008.96	3.31
1009.13	1.12
1009.29	0.63
1009.46	3.87
1009.62	4.39
1009.79	1.82
1009.95	4.49
1010.12	4.15
1010.28	0.06
1010.45	-3.69
1010.62	-5.06
1010.78	-5.03
1010.95	-5.18
1011.11	-5.90
1011.28	-7.41
1011.44	-7.17
1011.61	-5.53
1011.77	-6.98
1011.94	-8.27
1012.10	-5.03
1012.27	-1.55
1012.43	-2.98
1012.60	-0.80
1012.76	-1.25
1012.93	-0.39
1013.10	-0.82
1013.26	1.25
1013.43	3.98
1013.59	1.56
1013.76	3.31
1013.92	3.00
1014.09	2.25
1014.25	2.74
1014.42	1.97
1014.58	5.25
1014.75	4.65
1014.91	3.65
1015.08	3.20
1015.24	1.92
1015.41	4.24
1015.57	4.30
1015.73	3.82
1015.90	5.68
1016.06	7.91
1016.23	9.59
1016.39	6.91
1016.56	6.11
1016.72	4.30
1016.89	3.30
1017.05	3.09
1017.22	3.22
1017.38	4.10
1017.55	2.96
1017.71	0.76
1017.88	-0.56
1018.04	0.39
1018.21	-1.34
1018.37	1.60
1018.53	2.96
1018.70	6.13
1018.86	3.33
1019.03	1.94
1019.19	3.78
1019.36	5.38
1019.52	5.51
1019.69	7.65
1019.85	4.95
1020.01	5.38
1020.18	3.24
1020.34	5.73
1020.51	0.63
1020.67	1.17
1020.84	3.03
1021.00	-2.36
1021.16	-2.59
1021.33	-2.61
1021.49	-5.25
1021.66	-2.59
1021.82	-0.43
1021.98	-0.47
1022.15	1.86
1022.31	4.00
1022.48	3.05
1022.64	0.80
1022.80	3.30
1022.97	4.21
1023.13	6.85
1023.30	10.87
1023.46	10.28
1023.62	9.74
1023.79	9.68
1023.95	8.04
1024.12	9.44
1024.28	10.82
1024.44	15.99
1024.61	14.80
1024.77	11.92
1024.93	9.31
1025.10	8.10
1025.26	8.10
1025.43	8.55
1025.59	7.93
1025.75	7.58
1025.92	7.34
1026.08	9.40
1026.24	7.88
1026.41	8.99
1026.57	11.90
1026.73	12.10
1026.90	11.86
1027.06	8.75
1027.23	4.30
1027.39	4.62
1027.55	1.84
1027.72	1.08
1027.88	1.27
1028.04	-0.86
1028.21	-0.28
1028.37	-2.03
1028.53	0.20
1028.70	-1.82
1028.86	-1.38
1029.02	2.63
1029.19	3.22
1029.35	5.68
1029.51	4.65
1029.67	5.98
1029.84	4.95
1030.00	1.71
1030.16	1.86
1030.33	1.19
1030.49	0.26
1030.65	0.39
1030.82	0.54
1030.98	1.49
1031.14	1.27
1031.31	2.38
1031.47	0.91
1031.63	2.74
1031.79	5.88
1031.96	5.03
1032.12	3.07
1032.28	5.23
1032.45	9.61
1032.61	8.94
1032.77	7.86
1032.93	8.53
1033.10	7.22
1033.26	5.92
1033.42	4.65
1033.58	6.74
1033.75	6.11
1033.91	4.30
1034.07	3.84
1034.24	0.34
1034.40	1.36
1034.56	1.08
1034.72	0.34
1034.89	0.45
1035.05	1.41
1035.21	2.77
1035.37	-0.37
1035.54	-0.22
1035.70	1.68
1035.86	0.82
1036.02	2.03
1036.19	4.52
1036.35	7.11
1036.51	7.73
1036.67	7.78
1036.83	4.45
1037.00	2.16
1037.16	-0.04
1037.32	1.19
1037.48	2.16
1037.65	2.96
1037.81	1.73
1037.97	1.45
1038.13	-1.62
1038.29	-2.96
1038.46	-2.01
1038.62	1.19
1038.78	2.55
1038.94	2.22
1039.10	1.27
1039.27	1.45
1039.43	1.10
1039.59	-0.99
1039.75	-3.30
1039.91	-2.25
1040.08	-1.75
1040.24	-4.36
1040.40	-5.57
1040.56	-6.52
1040.72	-4.08
1040.89	-0.65
1041.05	-3.09
1041.21	-3.43
1041.37	-2.40
1041.53	-2.27
1041.69	-1.88
1041.86	-2.87
1042.02	-1.73
1042.18	0.06
1042.34	2.51
1042.50	2.66
1042.66	2.61
1042.83	5.51
1042.99	4.78
1043.15	7.24
1043.31	9.03
1043.47	10.41
1043.63	11.39
1043.79	11.97
1043.96	8.58
1044.12	8.81
1044.28	9.90
1044.44	9.46
1044.60	9.14
1044.76	11.25
1044.92	9.87
1045.09	8.92
1045.25	6.01
1045.41	7.07
1045.57	8.01
1045.73	6.48
1045.89	4.51
1046.05	3.18
1046.21	15.36
1046.38	12.90
1046.54	-35.84
1046.70	-1.23
1046.86	-0.82
>>>>>End Processed Spectral Data<<<<<
