SpectraSuite Data File
++++++++++++++++++++++++++++++++++++
Date: Mon May 06 13:51:02 CDT 2013
User: Students
Dark Spectrum Present: Yes
Reference Spectrum Present: Yes
Number of Sampled Component Spectra: 1
Spectrometers: USB4H00887
Integration Time (usec): 100000 (USB4H00887)
Spectra Averaged: 10 (USB4H00887)
Boxcar Smoothing: 5 (USB4H00887)
Correct for Electrical Dark: No (USB4H00887)
Strobe/Lamp Enabled: No (USB4H00887)
Correct for Detector Non-linearity: No (USB4H00887)
Correct for Stray Light: No (USB4H00887)
Number of Pixels in Processed Spectrum: 3648
>>>>>Begin Processed Spectral Data<<<<<
345.83	-6.14
346.05	-6.14
346.26	-6.14
346.48	-1.02
346.70	15.97
346.92	-2.98
347.14	-3.61
347.35	-1.36
347.57	-1.38
347.79	-3.57
348.01	-5.55
348.23	-2.14
348.44	-2.68
348.66	-3.46
348.88	-1.81
349.10	-2.05
349.32	-0.37
349.53	1.86
349.75	0.35
349.97	3.56
350.19	8.12
350.41	11.21
350.62	8.97
350.84	11.10
351.06	10.17
351.28	11.32
351.50	12.98
351.71	12.23
351.93	12.29
352.15	12.08
352.37	7.19
352.58	4.34
352.80	3.31
353.02	5.75
353.24	6.20
353.46	6.18
353.67	4.80
353.89	2.70
354.11	2.66
354.33	1.51
354.54	0.61
354.76	3.37
354.98	4.58
355.20	1.75
355.41	-0.15
355.63	-2.23
355.85	-2.18
356.07	-4.73
356.28	-4.32
356.50	-5.31
356.72	-5.83
356.94	-2.90
357.15	-3.65
357.37	-4.19
357.59	-0.28
357.81	-1.49
358.02	-5.21
358.24	-0.47
358.46	2.29
358.68	5.14
358.89	7.11
359.11	6.67
359.33	6.78
359.55	7.54
359.76	7.34
359.98	4.75
360.20	7.07
360.42	11.95
360.63	6.05
360.85	3.39
361.07	1.73
361.29	0.04
361.50	1.51
361.72	-0.73
361.94	-2.51
362.15	-4.26
362.37	-5.03
362.59	-6.24
362.81	-6.74
363.02	-2.64
363.24	-2.61
363.46	-6.14
363.68	-7.99
363.89	-7.50
364.11	-8.49
364.33	-7.63
364.54	-5.44
364.76	-3.56
364.98	-0.15
365.20	-3.41
365.41	-7.89
365.63	-4.43
365.85	-3.46
366.06	-0.06
366.28	1.10
366.50	3.82
366.71	4.49
366.93	2.22
367.15	1.90
367.37	0.99
367.58	5.47
367.80	9.23
368.02	7.88
368.23	8.68
368.45	6.72
368.67	4.47
368.88	2.48
369.10	3.84
369.32	7.95
369.53	6.72
369.75	6.44
369.97	4.00
370.19	2.36
370.40	2.22
370.62	5.01
370.84	6.40
371.05	6.42
371.27	6.05
371.49	4.64
371.70	2.46
371.92	4.13
372.14	0.65
372.35	2.51
372.57	5.72
372.79	5.55
373.00	5.98
373.22	6.74
373.44	7.71
373.65	9.72
373.87	9.40
374.09	7.80
374.30	8.17
374.52	9.10
374.74	11.00
374.95	5.98
375.17	7.06
375.39	5.86
375.60	2.33
375.82	1.45
376.04	2.53
376.25	1.71
376.47	4.67
376.68	0.82
376.90	1.58
377.12	-2.01
377.33	1.84
377.55	1.27
377.77	-0.67
377.98	2.14
378.20	1.66
378.42	2.01
378.63	3.00
378.85	5.68
379.07	9.98
379.28	7.95
379.50	10.15
379.71	8.94
379.93	8.40
380.15	8.28
380.36	10.30
380.58	10.61
380.80	8.88
381.01	9.33
381.23	7.32
381.44	7.67
381.66	11.58
381.88	9.59
382.09	6.96
382.31	5.19
382.53	5.38
382.74	2.76
382.96	3.44
383.17	3.13
383.39	2.25
383.61	1.66
383.82	0.24
384.04	-2.12
384.25	-1.06
384.47	0.95
384.69	0.50
384.90	0.34
385.12	-0.69
385.33	-1.55
385.55	-0.02
385.77	1.27
385.98	-1.27
386.20	-2.49
386.41	-1.81
386.63	-3.52
386.85	-0.60
387.06	1.14
387.28	4.67
387.49	4.54
387.71	5.60
387.93	1.66
388.14	1.99
388.36	1.45
388.57	1.90
388.79	0.88
389.01	0.69
389.22	-4.04
389.44	-1.27
389.65	-3.18
389.87	0.24
390.08	1.68
390.30	2.09
390.52	-0.88
390.73	4.00
390.95	3.03
391.16	2.31
391.38	2.51
391.59	1.88
391.81	-1.27
392.03	-1.84
392.24	-6.61
392.46	-6.67
392.67	-1.47
392.89	-0.19
393.10	-3.61
393.32	-4.64
393.53	-2.44
393.75	-1.30
393.97	3.11
394.18	2.74
394.40	3.85
394.61	7.41
394.83	4.28
395.04	3.28
395.26	2.89
395.47	2.70
395.69	3.74
395.91	2.72
396.12	2.70
396.34	3.24
396.55	5.12
396.77	3.52
396.98	2.92
397.20	1.82
397.41	-0.69
397.63	-0.71
397.84	-1.43
398.06	-1.28
398.27	1.90
398.49	0.67
398.71	-0.74
398.92	-0.54
399.14	-0.04
399.35	-0.15
399.57	0.45
399.78	0.65
400.00	0.82
400.21	0.97
400.43	1.49
400.64	-3.78
400.86	-4.97
401.07	-4.38
401.29	-6.80
401.50	-6.70
401.72	-10.46
401.93	-8.01
402.15	-8.97
402.36	-7.30
402.58	-4.97
402.79	-5.44
403.01	-2.85
403.22	0.32
403.44	-0.32
403.65	1.34
403.87	5.03
404.08	11.80
404.30	9.10
404.51	9.83
404.73	10.72
404.94	7.95
405.16	8.55
405.37	9.35
405.59	10.17
405.80	7.93
406.02	7.24
406.23	3.03
406.45	-2.68
406.66	-1.69
406.88	-4.43
407.09	-6.87
407.31	-5.06
407.52	-6.93
407.74	-8.02
407.95	-7.73
408.17	-4.97
408.38	-3.35
408.60	0.26
408.81	3.65
409.03	3.98
409.24	4.71
409.45	7.48
409.67	8.86
409.88	11.41
410.10	12.03
410.31	11.49
410.53	9.59
410.74	8.58
410.96	4.97
411.17	2.49
411.39	0.58
411.60	3.44
411.82	1.64
412.03	0.02
412.24	-0.97
412.46	-0.60
412.67	-2.77
412.89	-2.53
413.10	-2.85
413.32	-2.10
413.53	-2.81
413.75	-0.88
413.96	-3.50
414.17	-2.74
414.39	-3.17
414.60	-2.48
414.82	-3.87
415.03	-1.84
415.25	-0.00
415.46	3.59
415.68	1.58
415.89	9.10
416.10	8.97
416.32	11.64
416.53	10.89
416.75	10.76
416.96	7.35
417.18	8.28
417.39	6.27
417.60	2.16
417.82	-0.82
418.03	-0.28
418.25	-3.02
418.46	1.51
418.67	1.19
418.89	3.07
419.10	4.67
419.32	6.09
419.53	4.28
419.75	6.70
419.96	4.88
420.17	3.13
420.39	7.15
420.60	4.64
420.82	-0.09
421.03	-1.01
421.24	-6.11
421.46	-7.73
421.67	-5.79
421.89	-2.96
422.10	-5.92
422.31	-1.04
422.53	0.32
422.74	-0.24
422.96	0.69
423.17	0.65
423.38	-0.17
423.60	3.00
423.81	3.22
424.03	4.97
424.24	3.95
424.45	3.30
424.67	3.28
424.88	4.38
425.09	4.26
425.31	0.74
425.52	-0.32
425.74	-0.91
425.95	-0.06
426.16	0.17
426.38	-1.81
426.59	-1.38
426.80	0.58
427.02	0.60
427.23	1.90
427.45	2.77
427.66	7.69
427.87	8.14
428.09	11.80
428.30	12.73
428.51	14.58
428.73	13.27
428.94	13.03
429.15	12.96
429.37	12.66
429.58	10.26
429.79	9.18
430.01	4.62
430.22	5.51
430.44	3.98
430.65	2.22
430.86	1.66
431.08	2.40
431.29	1.25
431.50	-1.60
431.72	-1.86
431.93	0.22
432.14	-1.32
432.36	1.38
432.57	3.85
432.78	1.88
433.00	0.48
433.21	0.28
433.42	-0.39
433.64	2.23
433.85	7.19
434.06	8.82
434.28	6.42
434.49	6.68
434.70	6.40
434.92	3.30
435.13	5.32
435.34	8.32
435.56	5.94
435.77	6.55
435.98	4.73
436.20	2.87
436.41	-0.61
436.62	-0.89
436.83	-2.07
437.05	0.58
437.26	2.72
437.47	1.99
437.69	1.34
437.90	4.86
438.11	6.94
438.33	2.63
438.54	1.73
438.75	2.27
438.97	2.87
439.18	5.83
439.39	2.68
439.60	3.56
439.82	7.37
440.03	7.09
440.24	5.49
440.46	5.94
440.67	10.74
440.88	11.13
441.10	12.10
441.31	12.85
441.52	12.36
441.73	12.62
441.95	12.53
442.16	8.88
442.37	5.86
442.58	5.66
442.80	4.52
443.01	5.98
443.22	5.73
443.44	7.07
443.65	3.18
443.86	3.59
444.07	4.04
444.29	2.16
444.50	1.56
444.71	4.02
444.92	1.17
445.14	-0.09
445.35	-2.36
445.56	-0.09
445.78	-1.62
445.99	0.52
446.20	-0.89
446.41	-3.72
446.63	-2.87
446.84	-4.51
447.05	-5.18
447.26	-0.74
447.48	1.73
447.69	1.51
447.90	-0.13
448.11	1.19
448.33	2.66
448.54	1.55
448.75	4.00
448.96	2.42
449.18	6.05
449.39	6.98
449.60	6.89
449.81	5.85
450.03	6.27
450.24	5.08
450.45	2.31
450.66	1.60
450.87	3.13
451.09	0.00
451.30	2.23
451.51	3.02
451.72	2.96
451.94	0.60
452.15	0.37
452.36	-0.34
452.57	1.95
452.78	5.79
453.00	6.52
453.21	3.03
453.42	7.47
453.63	6.42
453.85	3.74
454.06	5.44
454.27	2.12
454.48	0.82
454.69	2.49
454.91	1.36
455.12	1.90
455.33	2.64
455.54	7.00
455.75	7.80
455.97	7.11
456.18	11.65
456.39	9.81
456.60	14.37
456.81	13.72
457.03	16.57
457.24	17.31
457.45	13.93
457.66	14.02
457.87	13.70
458.09	11.90
458.30	12.44
458.51	8.99
458.72	8.71
458.93	7.07
459.15	9.01
459.36	7.37
459.57	6.18
459.78	5.79
459.99	3.37
460.20	2.44
460.42	4.36
460.63	5.75
460.84	5.70
461.05	8.10
461.26	9.59
461.47	11.71
461.69	11.13
461.90	12.34
462.11	12.86
462.32	15.81
462.53	16.29
462.74	15.79
462.96	16.40
463.17	18.38
463.38	15.06
463.59	13.87
463.80	13.16
464.01	12.85
464.23	14.28
464.44	15.94
464.65	15.71
464.86	17.24
465.07	17.71
465.28	17.46
465.49	18.06
465.71	21.24
465.92	25.45
466.13	24.04
466.34	24.87
466.55	23.78
466.76	22.30
466.97	23.42
467.19	21.39
467.40	20.89
467.61	22.14
467.82	20.52
468.03	20.83
468.24	18.28
468.45	19.34
468.66	20.93
468.88	23.74
469.09	27.39
469.30	28.17
469.51	30.92
469.72	28.08
469.93	27.50
470.14	28.91
470.35	26.14
470.57	26.53
470.78	25.39
470.99	26.57
471.20	26.51
471.41	24.78
471.62	25.25
471.83	26.87
472.04	30.11
472.25	30.03
472.47	28.78
472.68	32.97
472.89	31.58
473.10	36.51
473.31	36.64
473.52	36.42
473.73	39.28
473.94	39.30
474.15	38.71
474.36	41.33
474.57	42.75
474.79	45.50
475.00	48.02
475.21	51.79
475.42	50.49
475.63	48.95
475.84	50.68
476.05	51.79
476.26	51.65
476.47	51.89
476.68	50.60
476.89	54.74
477.10	57.12
477.32	56.45
477.53	57.75
477.74	55.80
477.95	58.94
478.16	57.18
478.37	57.18
478.58	59.04
478.79	60.81
479.00	63.17
479.21	57.90
479.42	55.20
479.63	55.30
479.84	56.39
480.05	57.99
480.26	58.26
480.47	59.07
480.69	59.24
480.90	57.12
481.11	56.08
481.32	56.80
481.53	60.92
481.74	64.88
481.95	63.93
482.16	62.80
482.37	66.19
482.58	67.19
482.79	70.00
483.00	73.17
483.21	77.15
483.42	82.85
483.63	81.01
483.84	80.28
484.05	81.23
484.26	80.89
484.47	85.23
484.68	86.83
484.89	87.58
485.10	86.63
485.31	84.71
485.52	84.38
485.73	83.69
485.94	84.41
486.15	85.79
486.37	87.36
486.58	90.84
486.79	90.07
487.00	90.80
487.21	93.65
487.42	99.16
487.63	99.55
487.84	101.34
488.05	99.36
488.26	105.15
488.47	107.70
488.68	107.80
488.89	111.17
489.10	112.75
489.31	115.19
489.52	111.39
489.73	112.19
489.94	114.52
490.15	118.17
490.36	122.10
490.57	121.18
490.78	123.60
490.99	122.38
491.20	122.23
491.41	123.68
491.62	121.17
491.83	124.22
492.04	122.90
492.25	127.66
492.45	126.81
492.66	128.97
492.87	131.98
493.08	131.70
493.29	134.05
493.50	134.35
493.71	136.43
493.92	141.66
494.13	144.68
494.34	147.04
494.55	143.86
494.76	146.36
494.97	145.55
495.18	146.76
495.39	148.03
495.60	147.47
495.81	150.28
496.02	148.01
496.23	145.87
496.44	148.87
496.65	148.05
496.86	152.83
497.07	153.73
497.28	154.04
497.49	151.94
497.70	156.46
497.91	159.83
498.12	158.74
498.32	163.04
498.53	168.60
498.74	167.34
498.95	171.64
499.16	174.51
499.37	175.10
499.58	180.00
499.79	182.01
500.00	179.38
500.21	181.26
500.42	184.32
500.63	187.63
500.84	185.21
501.05	189.85
501.26	189.31
501.46	188.99
501.67	189.31
501.88	188.00
502.09	194.46
502.30	196.55
502.51	201.43
502.72	204.98
502.93	205.45
503.14	210.05
503.35	208.59
503.56	212.91
503.77	213.31
503.97	218.61
504.18	220.94
504.39	220.34
504.60	223.64
504.81	221.31
505.02	220.08
505.23	215.89
505.44	217.27
505.65	218.16
505.86	215.99
506.07	214.01
506.27	213.32
506.48	215.82
506.69	216.54
506.90	217.61
507.11	219.75
507.32	221.83
507.53	228.52
507.74	228.52
507.95	231.22
508.15	235.89
508.36	237.77
508.57	243.24
508.78	244.42
508.99	246.74
509.20	245.70
509.41	248.49
509.62	249.00
509.82	249.93
510.03	249.98
510.24	252.37
510.45	253.46
510.66	259.50
510.87	255.14
511.08	254.23
511.29	256.44
511.49	258.16
511.70	261.64
511.91	269.10
512.12	273.61
512.33	277.72
512.54	276.72
512.75	279.66
512.95	281.06
513.16	285.08
513.37	289.77
513.58	290.12
513.79	297.55
514.00	299.00
514.20	300.03
514.41	299.54
514.62	302.06
514.83	307.38
515.04	310.77
515.25	312.97
515.46	320.90
515.66	325.33
515.87	331.90
516.08	332.18
516.29	336.57
516.50	337.91
516.71	342.10
516.91	348.84
517.12	354.04
517.33	353.65
517.54	357.71
517.75	355.84
517.95	359.08
518.16	360.07
518.37	362.34
518.58	361.89
518.79	365.06
519.00	367.82
519.20	367.59
519.41	365.23
519.62	370.01
519.83	375.11
520.04	375.97
520.24	377.22
520.45	378.09
520.66	381.24
520.87	384.94
521.08	383.32
521.28	386.94
521.49	387.66
521.70	393.79
521.91	395.89
522.12	396.82
522.32	402.82
522.53	404.44
522.74	405.14
522.95	405.13
523.16	408.33
523.36	413.02
523.57	414.14
523.78	418.18
523.99	422.98
524.20	425.31
524.40	429.79
524.61	431.56
524.82	434.52
525.03	440.48
525.23	447.48
525.44	448.58
525.65	455.56
525.86	458.22
526.06	462.97
526.27	462.49
526.48	466.38
526.69	464.31
526.90	467.76
527.10	471.59
527.31	474.96
527.52	480.27
527.73	483.92
527.93	480.66
528.14	484.10
528.35	482.93
528.56	486.49
528.76	488.70
528.97	490.73
529.18	492.98
529.39	497.02
529.59	499.98
529.80	498.70
530.01	499.70
530.22	507.41
530.42	509.63
530.63	512.76
530.84	514.75
531.05	516.91
531.25	518.29
531.46	519.57
531.67	520.46
531.88	520.78
532.08	522.06
532.29	528.08
532.50	527.87
532.70	534.13
532.91	536.96
533.12	539.73
533.33	539.92
533.53	546.47
533.74	548.91
533.95	550.01
534.15	552.49
534.36	556.84
534.57	555.97
534.78	558.72
534.98	557.49
535.19	559.77
535.40	561.42
535.60	564.53
535.81	568.50
536.02	573.04
536.23	576.19
536.43	581.72
536.64	584.53
536.85	586.71
537.05	591.43
537.26	593.33
537.47	599.11
537.67	601.34
537.88	605.77
538.09	608.45
538.30	609.44
538.50	611.77
538.71	613.57
538.92	616.23
539.12	619.53
539.33	620.48
539.54	623.51
539.74	625.00
539.95	629.17
540.16	632.51
540.36	631.98
540.57	636.25
540.78	641.14
540.98	644.38
541.19	649.30
541.40	653.97
541.60	657.75
541.81	659.61
542.02	662.20
542.22	667.66
542.43	667.75
542.64	672.65
542.84	673.84
543.05	677.65
543.26	680.20
543.46	678.83
543.67	682.20
543.88	681.99
544.08	689.16
544.29	691.13
544.50	687.99
544.70	693.03
544.91	696.72
545.12	702.08
545.32	701.78
545.53	705.26
545.74	710.50
545.94	711.17
546.15	716.45
546.35	714.11
546.56	714.89
546.77	722.21
546.97	722.80
547.18	724.61
547.39	722.80
547.59	729.23
547.80	728.91
548.01	731.35
548.21	734.48
548.42	737.98
548.62	742.67
548.83	746.91
549.04	748.35
549.24	754.55
549.45	754.55
549.65	758.46
549.86	757.92
550.07	760.08
550.27	762.48
550.48	765.88
550.69	767.95
550.89	770.61
551.10	774.37
551.30	777.82
551.51	778.47
551.72	784.04
551.92	784.00
552.13	788.19
552.33	788.73
552.54	788.17
552.75	787.35
552.95	786.57
553.16	789.12
553.36	788.49
553.57	788.77
553.78	788.04
553.98	786.22
554.19	792.21
554.39	786.68
554.60	791.04
554.80	790.55
555.01	793.94
555.22	797.96
555.42	798.19
555.63	796.85
555.83	797.53
556.04	804.44
556.25	806.34
556.45	806.12
556.66	810.55
556.86	808.71
557.07	812.78
557.27	810.83
557.48	808.71
557.68	806.66
557.89	808.63
558.10	810.68
558.30	806.69
558.51	804.96
558.71	802.97
558.92	803.94
559.12	804.37
559.33	802.54
559.54	803.44
559.74	804.78
559.95	801.11
560.15	799.79
560.36	798.37
560.56	796.60
560.77	798.21
560.97	794.41
561.18	789.12
561.38	784.58
561.59	784.78
561.79	781.21
562.00	775.49
562.21	773.96
562.41	775.08
562.62	770.67
562.82	768.86
563.03	763.22
563.23	760.62
563.44	757.84
563.64	757.45
563.85	754.56
564.05	752.61
564.26	749.69
564.46	749.28
564.67	746.21
564.87	739.17
565.08	733.14
565.28	731.70
565.49	732.74
565.69	733.45
565.90	727.05
566.10	719.51
566.31	716.01
566.51	715.19
566.72	709.58
566.92	703.98
567.13	702.83
567.33	700.63
567.54	694.34
567.74	686.33
567.95	680.17
568.15	677.86
568.36	674.60
568.56	666.02
568.77	656.15
568.97	652.78
569.18	647.10
569.38	643.70
569.59	634.78
569.79	628.11
570.00	627.68
570.20	619.42
570.41	610.91
570.61	605.38
570.82	602.20
571.02	599.42
571.23	592.16
571.43	584.92
571.64	575.65
571.84	570.23
572.05	567.72
572.25	560.62
572.45	555.41
572.66	554.07
572.86	550.96
573.07	544.20
573.27	537.59
573.48	534.22
573.68	526.50
573.89	523.40
574.09	522.49
574.30	517.65
574.50	510.73
574.70	504.68
574.91	498.53
575.11	492.33
575.32	487.01
575.52	485.01
575.73	478.22
575.93	475.67
576.14	466.17
576.34	461.48
576.54	452.56
576.75	447.85
576.95	442.45
577.16	437.71
577.36	433.50
577.57	431.13
577.77	425.92
577.97	425.49
578.18	419.87
578.38	418.03
578.59	410.69
578.79	408.22
579.00	403.19
579.20	401.79
579.40	396.80
579.61	389.91
579.81	384.59
580.02	376.40
580.22	371.04
580.42	368.04
580.63	363.51
580.83	357.26
581.04	352.73
581.24	348.25
581.45	342.05
581.65	335.98
581.85	332.50
582.06	326.97
582.26	324.04
582.47	317.55
582.67	312.09
582.87	310.06
583.08	308.01
583.28	306.41
583.48	301.74
583.69	299.73
583.89	299.51
584.10	293.49
584.30	288.50
584.50	286.62
584.71	283.53
584.91	282.28
585.12	279.58
585.32	277.35
585.52	275.12
585.73	273.20
585.93	268.28
586.13	260.26
586.34	256.76
586.54	252.61
586.75	246.07
586.95	242.74
587.15	239.05
587.36	235.05
587.56	230.45
587.76	224.74
587.97	223.01
588.17	219.80
588.37	217.74
588.58	217.10
588.78	217.35
588.98	218.82
589.19	221.87
589.39	217.38
589.60	210.85
589.80	212.67
590.00	212.54
590.21	207.78
590.41	205.95
590.61	206.23
590.82	202.32
591.02	201.56
591.22	196.96
591.43	189.06
591.63	185.77
591.83	187.95
592.04	182.19
592.24	177.67
592.44	172.63
592.65	168.23
592.85	167.39
593.05	166.18
593.26	160.82
593.46	160.50
593.66	156.86
593.86	159.69
594.07	157.41
594.27	155.44
594.47	166.93
594.68	168.16
594.88	165.89
595.08	162.31
595.29	159.57
595.49	160.45
595.69	153.71
595.90	156.82
596.10	153.93
596.30	150.71
596.50	147.83
596.71	133.96
596.91	134.10
597.11	138.35
597.32	138.96
597.52	137.83
597.72	137.51
597.93	139.86
598.13	137.12
598.33	136.51
598.53	134.85
598.74	135.45
598.94	134.51
599.14	133.94
599.35	131.41
599.55	130.60
599.75	134.40
599.95	133.27
600.16	133.32
600.36	130.57
600.56	127.51
600.76	128.00
600.97	131.80
601.17	130.90
601.37	129.77
601.58	127.57
601.78	123.64
601.98	119.99
602.18	120.14
602.39	118.80
602.59	118.37
602.79	116.59
602.99	116.72
603.20	111.39
603.40	109.58
603.60	105.40
603.80	105.19
604.01	108.75
604.21	107.16
604.41	106.31
604.61	104.86
604.82	103.53
605.02	105.71
605.22	101.69
605.42	99.70
605.62	98.66
605.83	97.78
606.03	97.43
606.23	93.28
606.43	94.62
606.64	90.45
606.84	95.03
607.04	96.65
607.24	95.29
607.45	96.63
607.65	99.23
607.85	98.71
608.05	102.27
608.25	104.04
608.46	104.74
608.66	102.83
608.86	108.64
609.06	103.11
609.26	103.87
609.47	105.32
609.67	109.70
609.87	106.59
610.07	106.61
610.28	105.84
610.48	102.81
610.68	103.03
610.88	103.37
611.08	100.46
611.29	97.99
611.49	94.08
611.69	90.50
611.89	85.74
612.09	84.71
612.29	86.91
612.50	83.61
612.70	87.28
612.90	87.67
613.10	88.25
613.30	88.08
613.51	92.34
613.71	92.87
613.91	90.78
614.11	91.02
614.31	93.61
614.51	92.61
614.72	93.87
614.92	91.79
615.12	87.62
615.32	86.42
615.52	85.90
615.72	83.61
615.93	83.56
616.13	87.99
616.33	88.94
616.53	86.41
616.73	84.28
616.93	83.07
617.14	82.12
617.34	84.32
617.54	86.82
617.74	82.92
617.94	82.63
618.14	83.65
618.34	80.08
618.55	81.90
618.75	85.94
618.95	85.61
619.15	83.56
619.35	85.20
619.55	85.74
619.75	84.93
619.96	88.84
620.16	90.93
620.36	88.83
620.56	91.67
620.76	88.29
620.96	85.59
621.16	86.76
621.36	91.25
621.57	88.64
621.77	88.01
621.97	85.05
622.17	82.53
622.37	82.78
622.57	87.08
622.77	86.09
622.97	84.71
623.18	84.84
623.38	83.56
623.58	81.57
623.78	82.64
623.98	84.39
624.18	86.01
624.38	87.80
624.58	86.28
624.78	85.34
624.98	85.57
625.19	86.33
625.39	85.20
625.59	84.84
625.79	84.71
625.99	86.16
626.19	84.95
626.39	81.99
626.59	80.82
626.79	82.85
626.99	79.96
627.19	80.21
627.40	83.04
627.60	82.10
627.80	82.40
628.00	81.23
628.20	80.11
628.40	82.07
628.60	82.59
628.80	80.32
629.00	79.03
629.20	80.62
629.40	81.51
629.60	78.92
629.80	77.26
630.00	78.94
630.20	79.55
630.41	81.40
630.61	78.98
630.81	80.65
631.01	86.46
631.21	88.01
631.41	86.31
631.61	87.93
631.81	87.99
632.01	93.44
632.21	92.44
632.41	91.02
632.61	89.63
632.81	90.17
633.01	92.55
633.21	89.14
633.41	85.55
633.61	87.80
633.81	84.19
634.01	84.73
634.21	82.42
634.41	82.05
634.61	82.94
634.81	82.55
635.01	83.54
635.22	80.89
635.42	79.55
635.62	83.93
635.82	81.97
636.02	86.44
636.22	85.21
636.42	86.74
636.62	86.03
636.82	88.10
637.02	84.73
637.22	82.27
637.42	81.29
637.62	83.32
637.82	77.73
638.02	79.68
638.22	76.11
638.42	75.91
638.62	74.01
638.82	76.91
639.02	77.36
639.22	80.30
639.42	83.26
639.62	84.13
639.82	80.52
640.02	84.71
640.22	82.22
640.42	79.00
640.62	82.89
640.82	82.35
641.02	79.76
641.22	79.68
641.42	76.04
641.61	74.86
641.81	74.92
642.01	77.47
642.21	78.66
642.41	76.67
642.61	80.82
642.81	79.05
643.01	80.26
643.21	81.29
643.41	83.93
643.61	88.25
643.81	88.32
644.01	86.85
644.21	89.76
644.41	85.20
644.61	88.94
644.81	87.06
645.01	86.48
645.21	86.87
645.41	85.57
645.61	85.03
645.81	83.18
646.01	83.22
646.21	85.47
646.40	85.46
646.60	86.63
646.80	87.69
647.00	91.49
647.20	88.12
647.40	88.64
647.60	90.26
647.80	86.57
648.00	90.24
648.20	90.73
648.40	90.35
648.60	87.82
648.80	88.64
649.00	90.22
649.20	87.52
649.39	92.16
649.59	90.84
649.79	91.21
649.99	92.64
650.19	89.89
650.39	88.38
650.59	86.80
650.79	87.73
650.99	86.85
651.19	82.64
651.39	84.04
651.58	83.50
651.78	83.05
651.98	81.90
652.18	80.37
652.38	81.47
652.58	81.99
652.78	82.96
652.98	81.06
653.18	81.04
653.38	79.16
653.57	76.54
653.77	74.99
653.97	74.97
654.17	74.83
654.37	75.50
654.57	73.41
654.77	71.14
654.97	71.18
655.16	71.92
655.36	75.12
655.56	76.69
655.76	77.60
655.96	80.52
656.16	79.44
656.36	80.04
656.56	79.70
656.75	82.57
656.95	87.06
657.15	87.21
657.35	86.18
657.55	84.67
657.75	83.43
657.95	81.62
658.14	79.11
658.34	80.26
658.54	80.52
658.74	80.99
658.94	78.83
659.14	74.08
659.34	77.02
659.53	78.25
659.73	79.37
659.93	83.02
660.13	86.11
660.33	87.65
660.53	88.51
660.72	86.46
660.92	86.31
661.12	85.74
661.32	89.48
661.52	85.88
661.72	87.09
661.91	85.12
662.11	84.41
662.31	83.86
662.51	83.74
662.71	83.26
662.90	85.66
663.10	87.63
663.30	87.78
663.50	86.01
663.70	86.70
663.90	86.67
664.09	89.46
664.29	90.28
664.49	93.57
664.69	92.03
664.89	89.33
665.08	88.47
665.28	86.11
665.48	86.91
665.68	87.86
665.88	88.10
666.07	86.03
666.27	82.05
666.47	79.13
666.67	76.30
666.87	79.29
667.06	84.08
667.26	83.13
667.46	81.47
667.66	81.08
667.85	78.96
668.05	79.13
668.25	79.31
668.45	79.65
668.65	81.51
668.84	82.12
669.04	79.63
669.24	80.19
669.44	82.37
669.63	86.50
669.83	86.52
670.03	90.58
670.23	89.81
670.42	88.42
670.62	87.15
670.82	87.45
671.02	82.70
671.22	81.51
671.41	80.37
671.61	78.36
671.81	77.49
672.01	79.81
672.20	74.49
672.40	75.42
672.60	79.13
672.80	83.78
672.99	86.74
673.19	89.65
673.39	92.23
673.58	91.43
673.78	89.81
673.98	89.27
674.18	88.36
674.37	93.98
674.57	93.44
674.77	93.67
674.97	87.95
675.16	82.37
675.36	81.32
675.56	77.62
675.75	76.99
675.95	79.63
676.15	80.13
676.35	80.84
676.54	76.50
676.74	78.08
676.94	74.75
677.13	83.07
677.33	83.24
677.53	84.53
677.73	86.93
677.92	87.56
678.12	88.47
678.32	90.52
678.51	89.31
678.71	93.59
678.91	90.89
679.11	92.75
679.30	88.99
679.50	90.54
679.70	90.84
679.89	88.77
680.09	88.96
680.29	87.30
680.48	84.08
680.68	83.41
680.88	79.44
681.07	81.75
681.27	83.09
681.47	79.48
681.66	77.93
681.86	77.64
682.06	80.09
682.25	80.93
682.45	80.58
682.65	82.48
682.84	80.24
683.04	79.98
683.24	75.83
683.43	73.73
683.63	75.23
683.83	78.08
684.02	78.74
684.22	78.18
684.42	78.23
684.61	77.49
684.81	76.45
685.01	79.18
685.20	79.37
685.40	81.75
685.60	80.58
685.79	81.16
685.99	82.33
686.19	82.92
686.38	84.34
686.58	84.36
686.77	88.04
686.97	86.37
687.17	84.41
687.36	82.87
687.56	80.76
687.76	80.75
687.95	77.10
688.15	77.86
688.34	75.14
688.54	72.80
688.74	69.35
688.93	65.87
689.13	68.98
689.33	69.43
689.52	71.10
689.72	74.01
689.91	74.94
690.11	74.79
690.31	71.70
690.50	76.48
690.70	78.59
690.89	80.28
691.09	80.09
691.29	80.84
691.48	78.94
691.68	80.93
691.87	79.68
692.07	79.81
692.27	82.66
692.46	81.16
692.66	79.05
692.85	77.92
693.05	78.25
693.25	79.03
693.44	76.00
693.64	80.37
693.83	79.24
694.03	78.60
694.22	77.79
694.42	79.00
694.62	77.13
694.81	76.84
695.01	75.72
695.20	74.64
695.40	75.07
695.59	76.22
695.79	73.52
695.99	72.26
696.18	70.34
696.38	71.23
696.57	73.22
696.77	73.54
696.96	70.32
697.16	70.93
697.36	70.82
697.55	70.84
697.75	71.51
697.94	70.39
698.14	72.89
698.33	76.20
698.53	76.63
698.72	75.72
698.92	81.64
699.11	85.68
699.31	85.79
699.51	87.63
699.70	86.82
699.90	88.06
700.09	91.60
700.29	90.84
700.48	89.48
700.68	93.63
700.87	94.52
701.07	92.20
701.26	90.48
701.46	91.51
701.65	91.26
701.85	93.70
702.04	89.89
702.24	88.60
702.43	88.14
702.63	90.26
702.82	85.42
703.02	80.71
703.21	78.44
703.41	74.96
703.60	74.17
703.80	72.70
703.99	71.53
704.19	72.52
704.38	71.75
704.58	71.87
704.77	67.12
704.97	66.88
705.16	71.68
705.36	73.58
705.55	75.10
705.75	74.88
705.94	72.87
706.14	74.01
706.33	74.38
706.53	73.60
706.72	69.74
706.92	73.11
707.11	75.57
707.31	70.36
707.50	72.44
707.70	71.70
707.89	69.72
708.09	75.01
708.28	73.75
708.48	70.71
708.67	72.26
708.86	77.00
709.06	75.07
709.25	72.05
709.45	76.09
709.64	71.38
709.84	74.60
710.03	78.16
710.23	74.97
710.42	74.25
710.62	74.08
710.81	72.78
711.00	74.34
711.20	75.66
711.39	78.34
711.59	78.87
711.78	77.69
711.98	77.25
712.17	80.08
712.37	81.23
712.56	79.33
712.75	82.70
712.95	82.33
713.14	79.89
713.34	80.02
713.53	77.60
713.73	73.75
713.92	78.14
714.11	78.46
714.31	71.21
714.50	70.13
714.70	73.45
714.89	74.79
715.08	75.64
715.28	74.23
715.47	75.09
715.67	75.91
715.86	76.43
716.06	75.22
716.25	70.13
716.44	71.44
716.64	72.05
716.83	71.72
717.03	69.35
717.22	68.03
717.41	70.06
717.61	70.30
717.80	70.49
717.99	71.81
718.19	70.71
718.38	77.36
718.58	79.11
718.77	79.70
718.96	75.70
719.16	77.06
719.35	77.67
719.55	76.18
719.74	73.80
719.93	72.50
720.13	70.32
720.32	69.78
720.51	65.48
720.71	63.39
720.90	62.41
721.10	63.32
721.29	60.34
721.48	59.39
721.68	57.64
721.87	58.76
722.06	62.85
722.26	64.21
722.45	66.50
722.64	65.13
722.84	66.84
723.03	64.90
723.22	66.34
723.42	65.13
723.61	64.34
723.80	65.81
724.00	64.72
724.19	60.94
724.38	61.09
724.58	60.17
724.77	63.28
724.96	62.13
725.16	62.54
725.35	65.93
725.54	66.58
725.74	68.23
725.93	69.48
726.12	70.10
726.32	71.10
726.51	74.38
726.70	74.49
726.90	73.26
727.09	75.92
727.28	76.30
727.48	71.98
727.67	75.98
727.86	76.99
728.06	75.92
728.25	74.45
728.44	76.85
728.64	72.03
728.83	70.65
729.02	70.67
729.21	66.48
729.41	67.69
729.60	67.17
729.79	66.50
729.99	65.35
730.18	62.72
730.37	66.78
730.56	65.11
730.76	65.65
730.95	64.36
731.14	63.92
731.34	62.05
731.53	64.49
731.72	64.85
731.91	64.96
732.11	63.64
732.30	66.48
732.49	64.47
732.69	63.15
732.88	63.30
733.07	68.09
733.26	66.13
733.46	66.73
733.65	63.47
733.84	66.04
734.03	63.99
734.23	66.50
734.42	64.19
734.61	62.24
734.80	62.91
735.00	64.32
735.19	60.71
735.38	61.96
735.57	65.78
735.77	64.14
735.96	62.76
736.15	59.63
736.34	55.13
736.54	56.95
736.73	59.45
736.92	56.06
737.11	56.32
737.31	59.73
737.50	58.83
737.69	57.79
737.88	59.09
738.07	56.34
738.27	60.58
738.46	64.21
738.65	65.09
738.84	64.27
739.04	67.29
739.23	64.86
739.42	59.74
739.61	63.54
739.80	63.65
740.00	64.19
740.19	63.65
740.38	62.31
740.57	63.32
740.76	63.86
740.96	64.14
741.15	64.92
741.34	66.13
741.53	66.52
741.72	65.78
741.92	64.51
742.11	63.30
742.30	64.21
742.49	64.03
742.68	61.38
742.88	57.81
743.07	57.72
743.26	57.79
743.45	56.82
743.64	61.18
743.84	58.78
744.03	61.25
744.22	61.46
744.41	60.14
744.60	56.34
744.79	54.61
744.99	57.83
745.18	55.91
745.37	54.35
745.56	55.35
745.75	52.93
745.94	53.04
746.14	52.09
746.33	50.98
746.52	51.52
746.71	53.43
746.90	56.54
747.09	55.43
747.28	56.73
747.48	56.71
747.67	55.85
747.86	54.87
748.05	54.55
748.24	50.25
748.43	50.55
748.62	52.67
748.82	53.17
749.01	53.62
749.20	50.42
749.39	49.95
749.58	51.01
749.77	49.71
749.96	52.20
750.16	53.04
750.35	56.67
750.54	59.54
750.73	59.89
750.92	63.90
751.11	61.85
751.30	61.76
751.49	60.73
751.68	58.37
751.88	60.10
752.07	58.24
752.26	58.07
752.45	56.56
752.64	53.84
752.83	55.43
753.02	51.37
753.21	50.75
753.40	52.71
753.60	54.92
753.79	53.90
753.98	52.65
754.17	52.58
754.36	54.31
754.55	54.85
754.74	53.92
754.93	51.98
755.12	52.93
755.31	51.40
755.50	49.52
755.70	50.27
755.89	53.81
756.08	51.07
756.27	49.82
756.46	48.65
756.65	50.10
756.84	48.03
757.03	48.22
757.22	48.89
757.41	53.12
757.60	56.02
757.79	52.15
757.98	47.77
758.17	51.79
758.36	50.55
758.56	47.18
758.75	47.66
758.94	49.82
759.13	49.34
759.32	48.43
759.51	47.74
759.70	44.91
759.89	46.56
760.08	49.43
760.27	47.96
760.46	47.85
760.65	50.10
760.84	50.31
761.03	51.12
761.22	54.16
761.41	51.20
761.60	52.37
761.79	51.40
761.98	54.18
762.17	52.78
762.36	54.01
762.55	55.02
762.74	55.67
762.93	55.74
763.12	56.54
763.31	52.80
763.50	57.36
763.69	53.32
763.88	54.96
764.07	51.68
764.26	50.42
764.45	50.32
764.64	49.93
764.83	47.75
765.02	44.68
765.21	42.47
765.40	42.41
765.59	39.13
765.78	40.55
765.97	40.23
766.16	36.68
766.35	37.87
766.54	36.01
766.73	35.39
766.92	35.95
767.11	38.52
767.30	38.54
767.49	37.07
767.68	39.84
767.87	40.29
768.06	41.00
768.25	45.91
768.44	44.11
768.63	46.02
768.82	47.35
769.01	50.29
769.20	51.05
769.39	53.25
769.58	54.20
769.77	52.65
769.96	52.60
770.15	53.71
770.34	51.91
770.53	52.13
770.72	51.44
770.91	49.99
771.10	49.00
771.29	45.61
771.47	43.90
771.66	45.95
771.85	45.20
772.04	42.39
772.23	41.87
772.42	41.74
772.61	44.31
772.80	43.70
772.99	44.91
773.18	43.04
773.37	41.72
773.56	41.26
773.75	39.60
773.94	40.07
774.13	38.78
774.31	39.67
774.50	39.94
774.69	36.71
774.88	36.38
775.07	38.48
775.26	39.49
775.45	43.58
775.64	44.98
775.83	45.65
776.02	46.14
776.21	50.32
776.40	50.77
776.58	49.06
776.77	51.50
776.96	50.70
777.15	48.26
777.34	45.89
777.53	42.60
777.72	40.87
777.91	39.32
778.10	39.67
778.28	37.59
778.47	37.52
778.66	38.99
778.85	40.18
779.04	38.00
779.23	35.41
779.42	36.06
779.61	37.37
779.79	40.53
779.98	42.58
780.17	39.82
780.36	39.94
780.55	37.40
780.74	38.74
780.93	36.38
781.12	37.65
781.30	39.25
781.49	38.33
781.68	37.61
781.87	35.99
782.06	36.64
782.25	39.71
782.44	40.62
782.62	41.50
782.81	37.96
783.00	38.17
783.19	42.90
783.38	45.17
783.57	45.76
783.75	45.04
783.94	44.27
784.13	43.17
784.32	40.92
784.51	42.32
784.70	40.64
784.88	43.23
785.07	43.23
785.26	40.42
785.45	36.49
785.64	38.91
785.83	38.48
786.01	38.00
786.20	37.16
786.39	39.66
786.58	36.73
786.77	35.21
786.95	34.37
787.14	34.20
787.33	32.92
787.52	34.59
787.71	34.00
787.90	34.63
788.08	34.82
788.27	33.74
788.46	30.65
788.65	31.02
788.84	33.21
789.02	33.29
789.21	35.67
789.40	37.25
789.59	39.36
789.77	39.40
789.96	40.49
790.15	38.28
790.34	37.83
790.53	36.94
790.71	36.84
790.90	36.81
791.09	38.22
791.28	34.91
791.46	34.54
791.65	32.21
791.84	32.08
792.03	28.39
792.22	29.06
792.40	29.73
792.59	32.82
792.78	34.46
792.97	35.37
793.15	34.15
793.34	33.31
793.53	32.97
793.72	34.13
793.90	32.04
794.09	34.09
794.28	32.60
794.47	31.15
794.65	29.60
794.84	27.72
795.03	26.18
795.22	26.57
795.40	30.50
795.59	28.30
795.78	30.27
795.97	35.45
796.15	33.79
796.34	34.16
796.53	36.64
796.71	34.59
796.90	33.36
797.09	34.76
797.28	31.15
797.46	30.85
797.65	32.12
797.84	28.17
798.02	24.17
798.21	28.67
798.40	30.83
798.59	29.66
798.77	34.67
798.96	37.63
799.15	35.95
799.33	37.98
799.52	38.26
799.71	37.09
799.90	36.36
800.08	36.16
800.27	33.38
800.46	33.75
800.64	32.77
800.83	28.73
801.02	30.31
801.20	30.48
801.39	30.53
801.58	32.69
801.76	33.44
801.95	36.92
802.14	36.01
802.32	36.98
802.51	37.31
802.70	39.08
802.88	39.54
803.07	36.75
803.26	38.05
803.44	36.98
803.63	32.80
803.82	30.35
804.00	28.22
804.19	28.69
804.38	29.34
804.56	26.51
804.75	26.47
804.94	26.20
805.12	24.71
805.31	25.21
805.50	28.36
805.68	26.38
805.87	31.67
806.06	30.91
806.24	31.07
806.43	29.43
806.62	33.42
806.80	33.61
806.99	34.82
807.17	36.94
807.36	36.04
807.55	33.85
807.73	37.68
807.92	34.78
808.11	37.61
808.29	35.58
808.48	34.54
808.66	34.61
808.85	34.01
809.04	32.00
809.22	34.74
809.41	33.62
809.59	34.18
809.78	31.89
809.97	31.37
810.15	29.32
810.34	30.42
810.53	30.25
810.71	28.43
810.90	29.23
811.08	29.94
811.27	23.27
811.45	25.64
811.64	26.49
811.83	27.76
812.01	28.02
812.20	28.19
812.38	28.49
812.57	28.58
812.76	25.99
812.94	25.28
813.13	28.15
813.31	32.36
813.50	30.16
813.68	26.33
813.87	25.34
814.06	26.53
814.24	24.87
814.43	25.73
814.61	28.15
814.80	30.51
814.98	31.13
815.17	29.62
815.36	27.61
815.54	28.19
815.73	29.71
815.91	30.11
816.10	27.63
816.28	27.54
816.47	25.99
816.65	24.58
816.84	24.35
817.03	25.90
817.21	24.95
817.40	25.32
817.58	22.99
817.77	22.30
817.95	20.98
818.14	25.17
818.32	25.28
818.51	26.36
818.69	24.26
818.88	24.39
819.06	19.55
819.25	17.58
819.43	14.32
819.62	14.80
819.80	15.01
819.99	14.91
820.18	11.71
820.36	14.43
820.55	14.32
820.73	17.02
820.92	16.94
821.10	16.98
821.29	17.97
821.47	22.77
821.66	26.36
821.84	27.13
822.03	27.72
822.21	28.32
822.40	27.83
822.58	26.96
822.77	29.25
822.95	27.16
823.14	28.60
823.32	30.03
823.50	27.44
823.69	23.70
823.87	24.63
824.06	23.64
824.24	22.32
824.43	22.42
824.61	27.22
824.80	23.85
824.98	23.03
825.17	24.37
825.35	22.71
825.54	21.54
825.72	22.36
825.91	22.19
826.09	22.55
826.28	21.63
826.46	18.90
826.64	15.10
826.83	16.07
827.01	18.86
827.20	13.42
827.38	13.54
827.57	14.80
827.75	14.34
827.94	13.18
828.12	12.81
828.31	13.50
828.49	15.56
828.67	15.64
828.86	16.77
829.04	17.43
829.23	23.24
829.41	26.40
829.60	29.49
829.78	32.73
829.96	34.63
830.15	35.37
830.33	34.59
830.52	32.19
830.70	30.72
830.88	29.71
831.07	29.23
831.25	25.28
831.44	22.53
831.62	19.53
831.81	16.09
831.99	16.48
832.17	16.44
832.36	16.14
832.54	18.99
832.73	18.49
832.91	15.32
833.09	13.85
833.28	13.74
833.46	15.53
833.65	18.56
833.83	19.72
834.01	16.46
834.20	16.05
834.38	20.87
834.56	21.28
834.75	24.28
834.93	26.38
835.12	25.97
835.30	26.79
835.48	22.96
835.67	18.52
835.85	17.82
836.03	19.44
836.22	18.60
836.40	15.08
836.59	11.02
836.77	8.19
836.95	7.56
837.14	9.68
837.32	10.44
837.50	10.74
837.69	10.93
837.87	8.96
838.05	6.93
838.24	6.78
838.42	7.32
838.60	10.28
838.79	11.79
838.97	13.27
839.15	10.24
839.34	10.02
839.52	10.80
839.70	12.10
839.89	18.45
840.07	22.68
840.25	23.27
840.44	23.63
840.62	23.29
840.80	23.48
840.99	22.70
841.17	23.25
841.35	24.87
841.54	25.62
841.72	23.01
841.90	17.35
842.09	14.48
842.27	11.80
842.45	11.92
842.64	12.88
842.82	10.43
843.00	9.59
843.19	12.06
843.37	11.54
843.55	7.95
843.73	9.61
843.92	8.56
844.10	10.17
844.28	10.44
844.47	9.72
844.65	8.53
844.83	10.30
845.01	10.56
845.20	11.00
845.38	10.30
845.56	11.56
845.75	12.08
845.93	14.89
846.11	10.89
846.29	12.81
846.48	16.29
846.66	17.13
846.84	16.61
847.02	15.96
847.21	12.64
847.39	13.27
847.57	15.86
847.76	18.77
847.94	16.98
848.12	17.35
848.30	16.81
848.49	13.59
848.67	14.88
848.85	13.27
849.03	14.76
849.22	15.53
849.40	14.04
849.58	12.75
849.76	9.85
849.95	10.28
850.13	11.15
850.31	12.59
850.49	13.63
850.67	11.80
850.86	16.74
851.04	15.97
851.22	17.89
851.40	19.68
851.59	21.28
851.77	21.84
851.95	21.00
852.13	20.31
852.31	21.00
852.50	22.58
852.68	21.39
852.86	17.31
853.04	14.17
853.23	11.32
853.41	10.74
853.59	18.75
853.77	17.09
853.95	17.07
854.14	20.95
854.32	20.00
854.50	18.60
854.68	20.89
854.86	19.16
855.04	20.93
855.23	22.06
855.41	22.62
855.59	12.42
855.77	15.06
855.95	17.20
856.14	15.88
856.32	16.10
856.50	15.68
856.68	11.10
856.86	14.21
857.04	13.67
857.23	10.74
857.41	11.80
857.59	10.52
857.77	7.24
857.95	4.21
858.13	3.65
858.32	1.40
858.50	-0.32
858.68	4.65
858.86	5.83
859.04	5.57
859.22	8.96
859.41	5.34
859.59	10.76
859.77	12.18
859.95	15.02
860.13	16.40
860.31	18.13
860.49	19.08
860.68	17.15
860.86	14.11
861.04	15.08
861.22	13.33
861.40	13.93
861.58	10.67
861.76	10.43
861.94	9.09
862.13	8.55
862.31	6.76
862.49	8.90
862.67	7.39
862.85	5.99
863.03	5.23
863.21	4.13
863.39	6.39
863.57	3.22
863.76	3.95
863.94	5.40
864.12	3.59
864.30	4.69
864.48	2.42
864.66	4.62
864.84	5.40
865.02	8.15
865.20	8.38
865.38	6.48
865.57	10.33
865.75	11.92
865.93	11.30
866.11	11.39
866.29	13.48
866.47	12.73
866.65	11.69
866.83	14.15
867.01	10.30
867.19	12.14
867.37	11.84
867.55	10.09
867.73	6.93
867.92	5.47
868.10	7.07
868.28	7.84
868.46	6.87
868.64	6.83
868.82	3.56
869.00	3.91
869.18	4.51
869.36	2.46
869.54	6.40
869.72	10.35
869.90	10.69
870.08	11.38
870.26	9.27
870.44	7.26
870.62	8.75
870.80	14.67
870.98	16.31
871.16	13.26
871.34	15.69
871.53	11.95
871.71	6.53
871.89	7.80
872.07	7.19
872.25	7.76
872.43	7.37
872.61	6.01
872.79	2.76
872.97	4.28
873.15	6.78
873.33	5.77
873.51	5.73
873.69	11.86
873.87	11.95
874.05	12.14
874.23	11.21
874.41	14.35
874.59	15.90
874.77	14.04
874.95	9.96
875.13	10.57
875.31	10.15
875.49	8.40
875.67	4.26
875.85	2.44
876.03	1.41
876.21	0.50
876.39	2.16
876.57	0.88
876.75	1.73
876.93	5.81
877.11	6.96
877.29	8.60
877.47	14.62
877.65	15.10
877.82	16.87
878.00	14.69
878.18	17.56
878.36	17.84
878.54	17.58
878.72	19.88
878.90	19.36
879.08	18.12
879.26	15.51
879.44	9.77
879.62	12.77
879.80	13.55
879.98	14.48
880.16	14.58
880.34	13.78
880.52	13.01
880.70	10.67
880.88	10.87
881.06	12.73
881.24	12.62
881.42	14.93
881.59	12.10
881.77	11.90
881.95	10.76
882.13	5.85
882.31	7.28
882.49	6.20
882.67	8.51
882.85	5.16
883.03	4.71
883.21	7.15
883.39	5.10
883.57	4.10
883.75	2.18
883.92	2.87
884.10	6.31
884.28	5.46
884.46	6.74
884.64	4.54
884.82	11.67
885.00	11.62
885.18	10.98
885.36	12.03
885.54	13.18
885.71	12.49
885.89	16.05
886.07	15.42
886.25	17.71
886.43	17.71
886.61	15.66
886.79	13.98
886.97	12.88
887.15	13.09
887.32	15.81
887.50	14.09
887.68	17.05
887.86	16.37
888.04	18.17
888.22	17.04
888.40	16.10
888.57	18.79
888.75	13.59
888.93	10.31
889.11	11.25
889.29	9.98
889.47	12.42
889.65	9.96
889.82	9.79
890.00	6.46
890.18	2.83
890.36	3.09
890.54	4.88
890.72	7.24
890.90	11.25
891.07	8.19
891.25	7.34
891.43	6.57
891.61	11.79
891.79	10.33
891.97	10.63
892.14	11.49
892.32	12.38
892.50	11.10
892.68	10.78
892.86	7.65
893.03	11.19
893.21	12.33
893.39	7.02
893.57	2.18
893.75	0.86
893.93	-0.13
894.10	1.21
894.28	-0.19
894.46	2.22
894.64	0.45
894.82	2.22
894.99	-0.82
895.17	-3.98
895.35	0.39
895.53	0.65
895.71	-0.89
895.88	0.69
896.06	0.47
896.24	3.54
896.42	1.51
896.59	5.05
896.77	6.26
896.95	7.60
897.13	7.82
897.31	9.25
897.48	11.60
897.66	15.53
897.84	14.60
898.02	11.19
898.19	5.68
898.37	2.22
898.55	1.32
898.73	1.06
898.91	-0.09
899.08	0.22
899.26	0.56
899.44	0.22
899.62	-3.89
899.79	-4.26
899.97	-2.66
900.15	2.22
900.33	4.06
900.50	1.81
900.68	-0.39
900.86	2.59
901.04	3.95
901.21	3.67
901.39	1.56
901.57	3.67
901.74	7.06
901.92	8.62
902.10	8.12
902.28	7.35
902.45	8.42
902.63	8.96
902.81	10.07
902.99	13.14
903.16	12.16
903.34	11.65
903.52	11.99
903.69	10.72
903.87	10.37
904.05	8.55
904.22	11.28
904.40	9.94
904.58	13.14
904.76	13.18
904.93	11.39
905.11	11.30
905.29	11.84
905.46	11.23
905.64	10.74
905.82	11.23
905.99	9.79
906.17	8.62
906.35	11.58
906.53	6.01
906.70	1.30
906.88	1.02
907.06	4.13
907.23	4.23
907.41	3.48
907.59	6.44
907.76	4.19
907.94	5.96
908.12	6.03
908.29	6.83
908.47	10.00
908.65	12.08
908.82	13.24
909.00	9.22
909.18	9.72
909.35	10.50
909.53	6.20
909.71	6.39
909.88	6.03
910.06	7.71
910.23	7.91
910.41	8.36
910.59	9.79
910.76	8.40
910.94	10.97
911.12	12.12
911.29	12.68
911.47	12.21
911.65	12.53
911.82	9.90
912.00	7.65
912.17	5.86
912.35	5.66
912.53	4.41
912.70	4.21
912.88	2.46
913.06	5.01
913.23	3.69
913.41	4.45
913.58	9.16
913.76	14.21
913.94	14.82
914.11	15.25
914.29	12.66
914.46	12.88
914.64	14.65
914.82	14.62
914.99	13.16
915.17	15.49
915.34	15.12
915.52	10.80
915.70	9.70
915.87	11.04
916.05	11.08
916.22	15.53
916.40	17.58
916.57	15.29
916.75	13.24
916.93	11.69
917.10	11.77
917.28	10.28
917.45	10.11
917.63	8.56
917.80	4.62
917.98	4.30
918.16	2.92
918.33	-0.63
918.51	-0.17
918.68	2.29
918.86	1.69
919.03	1.82
919.21	4.21
919.39	6.42
919.56	8.51
919.74	10.30
919.91	10.17
920.09	8.02
920.26	9.51
920.44	7.26
920.61	4.39
920.79	4.34
920.96	2.53
921.14	3.07
921.31	-1.17
921.49	-1.41
921.67	-0.06
921.84	-1.02
922.02	1.73
922.19	0.58
922.37	2.81
922.54	4.73
922.72	3.13
922.89	5.06
923.07	3.28
923.24	5.90
923.42	2.70
923.59	2.49
923.77	4.88
923.94	0.63
924.12	0.56
924.29	2.94
924.47	3.20
924.64	7.56
924.82	8.73
924.99	11.75
925.17	12.62
925.34	15.25
925.52	15.21
925.69	12.12
925.87	14.30
926.04	17.22
926.22	17.46
926.39	15.04
926.57	10.89
926.74	8.43
926.91	6.13
927.09	4.60
927.26	4.52
927.44	2.96
927.61	2.77
927.79	4.28
927.96	1.17
928.14	-3.30
928.31	4.02
928.49	4.24
928.66	6.39
928.84	6.63
929.01	6.01
929.18	5.49
929.36	6.35
929.53	9.87
929.71	7.07
929.88	9.05
930.06	10.15
930.23	5.99
930.41	5.64
930.58	5.01
930.75	5.49
930.93	5.29
931.10	4.80
931.28	2.70
931.45	0.19
931.63	2.94
931.80	1.82
931.97	1.14
932.15	1.45
932.32	2.55
932.50	-0.24
932.67	-0.61
932.84	-1.14
933.02	0.19
933.19	2.10
933.37	0.84
933.54	-0.19
933.71	2.18
933.89	4.99
934.06	4.15
934.24	6.14
934.41	7.50
934.58	7.71
934.76	11.67
934.93	11.90
935.11	11.67
935.28	12.66
935.45	11.10
935.63	9.94
935.80	8.32
935.98	7.95
936.15	3.35
936.32	1.53
936.50	3.72
936.67	-1.43
936.84	-1.81
937.02	-4.17
937.19	-5.21
937.36	-3.56
937.54	-9.51
937.71	-8.23
937.89	-5.77
938.06	-4.36
938.23	-4.21
938.41	-6.40
938.58	-2.40
938.75	-2.01
938.93	1.17
939.10	2.10
939.27	3.69
939.45	10.11
939.62	8.96
939.79	6.05
939.97	5.19
940.14	6.70
940.31	6.85
940.49	4.38
940.66	4.38
940.83	5.08
941.01	6.11
941.18	2.49
941.35	1.56
941.53	0.95
941.70	4.28
941.87	4.97
942.05	4.34
942.22	3.56
942.39	5.81
942.57	5.19
942.74	4.75
942.91	4.95
943.08	5.90
943.26	8.43
943.43	7.32
943.60	7.61
943.78	11.00
943.95	9.87
944.12	11.77
944.29	10.05
944.47	9.48
944.64	9.14
944.81	8.84
944.99	8.23
945.16	0.86
945.33	-0.45
945.50	-0.69
945.68	-0.43
945.85	-1.21
946.02	-3.54
946.20	-1.95
946.37	-0.76
946.54	-2.18
946.71	-0.97
946.89	0.54
947.06	4.21
947.23	6.07
947.40	5.27
947.58	4.86
947.75	6.96
947.92	9.14
948.09	5.90
948.27	4.13
948.44	2.27
948.61	-0.54
948.78	-3.13
948.96	-3.26
949.13	-2.44
949.30	-3.13
949.47	-6.39
949.65	-8.17
949.82	-9.72
949.99	-5.94
950.16	-4.75
950.33	-4.28
950.51	-3.85
950.68	-2.98
950.85	-1.02
951.02	-0.06
951.20	-0.41
951.37	1.21
951.54	3.52
951.71	4.11
951.88	2.25
952.06	1.10
952.23	4.13
952.40	5.31
952.57	8.55
952.74	9.05
952.92	7.28
953.09	7.32
953.26	5.10
953.43	3.39
953.60	2.72
953.77	4.19
953.95	6.05
954.12	4.49
954.29	2.25
954.46	0.80
954.63	-1.90
954.81	-0.82
954.98	-1.36
955.15	0.17
955.32	3.65
955.49	1.14
955.66	-1.04
955.84	-2.57
956.01	-0.95
956.18	1.90
956.35	0.63
956.52	-0.22
956.69	-1.64
956.87	0.07
957.04	1.69
957.21	0.20
957.38	1.81
957.55	3.67
957.72	3.98
957.89	4.78
958.07	4.39
958.24	5.29
958.41	6.14
958.58	4.15
958.75	3.03
958.92	0.28
959.09	0.22
959.26	-0.45
959.44	-1.97
959.61	-4.78
959.78	-6.03
959.95	-5.83
960.12	-7.80
960.29	-6.46
960.46	-5.36
960.63	-6.67
960.81	-7.61
960.98	-7.84
961.15	-4.60
961.32	-2.94
961.49	-0.09
961.66	1.99
961.83	1.58
962.00	2.72
962.17	-1.97
962.34	1.27
962.52	3.22
962.69	2.90
962.86	1.38
963.03	-0.56
963.20	0.22
963.37	-0.19
963.54	-2.44
963.71	-0.20
963.88	-0.19
964.05	4.11
964.22	0.86
964.39	-1.71
964.56	-0.95
964.74	0.60
964.91	1.51
965.08	-1.10
965.25	0.60
965.42	-2.29
965.59	-6.98
965.76	-9.38
965.93	-7.37
966.10	-6.16
966.27	-6.14
966.44	-6.01
966.61	-5.36
966.78	-5.92
966.95	-3.80
967.12	-4.54
967.29	-3.30
967.46	-1.27
967.63	1.73
967.80	0.76
967.97	3.37
968.14	4.23
968.32	3.44
968.49	1.41
968.66	0.37
968.83	2.61
969.00	2.23
969.17	4.58
969.34	3.33
969.51	1.06
969.68	1.27
969.85	1.21
970.02	-0.39
970.19	1.49
970.36	3.69
970.53	3.67
970.70	-0.69
970.87	-1.30
971.04	-4.19
971.21	-5.68
971.38	-4.23
971.55	-5.32
971.72	-6.74
971.89	-6.50
972.06	-7.60
972.23	-9.42
972.40	-7.88
972.57	-5.60
972.74	-4.23
972.91	-2.79
973.07	-0.82
973.24	-0.76
973.41	-1.02
973.58	-3.59
973.75	-2.10
973.92	0.63
974.09	0.37
974.26	1.51
974.43	-0.89
974.60	-1.71
974.77	-0.71
974.94	3.24
975.11	4.24
975.28	3.65
975.45	5.05
975.62	6.67
975.79	5.42
975.96	6.96
976.13	4.15
976.30	6.39
976.47	6.18
976.64	4.23
976.80	-0.34
976.97	-2.12
977.14	-1.49
977.31	1.12
977.48	0.13
977.65	1.41
977.82	0.76
977.99	1.69
978.16	1.82
978.33	1.55
978.50	0.99
978.67	2.09
978.83	3.24
979.00	0.95
979.17	-2.05
979.34	-4.21
979.51	-3.80
979.68	-4.15
979.85	-2.29
980.02	-1.51
980.19	0.17
980.36	1.49
980.52	1.56
980.69	1.21
980.86	1.97
981.03	3.13
981.20	5.32
981.37	4.02
981.54	2.76
981.71	1.32
981.88	-1.32
982.04	-1.90
982.21	-0.91
982.38	-0.20
982.55	1.79
982.72	4.82
982.89	3.33
983.06	2.35
983.22	2.87
983.39	5.12
983.56	6.37
983.73	5.92
983.90	5.83
984.07	4.97
984.24	3.24
984.40	1.21
984.57	1.73
984.74	4.80
984.91	3.46
985.08	6.98
985.25	8.14
985.41	6.57
985.58	10.76
985.75	12.46
985.92	14.39
986.09	12.21
986.26	11.60
986.42	10.61
986.59	9.63
986.76	12.34
986.93	8.60
987.10	8.12
987.27	8.08
987.43	5.72
987.60	3.54
987.77	3.20
987.94	8.69
988.11	9.46
988.27	4.86
988.44	5.92
988.61	8.64
988.78	7.86
988.95	6.37
989.11	5.92
989.28	4.28
989.45	3.33
989.62	3.41
989.79	2.70
989.95	1.53
990.12	3.03
990.29	0.04
990.46	-1.97
990.62	-0.43
990.79	0.20
990.96	-0.07
991.13	1.69
991.30	3.54
991.46	0.00
991.63	0.34
991.80	1.21
991.97	3.35
992.13	6.20
992.30	4.30
992.47	3.87
992.64	1.90
992.80	4.06
992.97	4.80
993.14	5.36
993.31	7.17
993.47	3.31
993.64	4.86
993.81	4.95
993.98	0.91
994.14	0.24
994.31	0.28
994.48	3.07
994.64	0.99
994.81	-1.49
994.98	-3.31
995.15	0.56
995.31	4.75
995.48	5.29
995.65	6.11
995.82	9.48
995.98	10.28
996.15	10.17
996.32	10.35
996.48	10.63
996.65	14.82
996.82	17.37
996.99	10.71
997.15	7.89
997.32	8.17
997.49	8.66
997.65	7.73
997.82	7.97
997.99	7.73
998.15	6.48
998.32	8.45
998.49	5.59
998.65	4.38
998.82	4.00
998.99	5.29
999.15	3.13
999.32	0.76
999.49	2.07
999.65	1.92
999.82	-1.99
999.99	-2.96
1000.15	-3.63
1000.32	-5.77
1000.49	-6.42
1000.65	-2.81
1000.82	-3.95
1000.99	-1.92
1001.15	0.04
1001.32	-2.35
1001.49	-0.58
1001.65	-3.03
1001.82	-3.02
1001.99	-3.74
1002.15	-0.48
1002.32	-1.45
1002.49	-0.67
1002.65	-1.10
1002.82	-1.12
1002.99	-3.15
1003.15	-0.35
1003.32	-3.76
1003.48	1.53
1003.65	3.17
1003.82	1.58
1003.98	-0.61
1004.15	-0.37
1004.32	-0.30
1004.48	0.58
1004.65	0.34
1004.81	-0.20
1004.98	-3.87
1005.15	-3.00
1005.31	-3.22
1005.48	-4.04
1005.64	-3.65
1005.81	-2.23
1005.98	0.32
1006.14	-0.61
1006.31	-2.09
1006.47	-3.76
1006.64	-3.70
1006.81	-3.24
1006.97	-1.79
1007.14	0.02
1007.30	-0.22
1007.47	0.22
1007.63	-1.04
1007.80	-4.78
1007.97	-2.94
1008.13	-1.69
1008.30	-0.15
1008.46	1.25
1008.63	4.62
1008.79	4.95
1008.96	2.63
1009.13	1.10
1009.29	3.13
1009.46	5.53
1009.62	6.24
1009.79	3.63
1009.95	6.33
1010.12	4.77
1010.28	3.78
1010.45	0.48
1010.62	1.86
1010.78	2.20
1010.95	3.28
1011.11	4.26
1011.28	2.79
1011.44	1.38
1011.61	2.38
1011.77	-1.36
1011.94	-1.86
1012.10	-0.07
1012.27	1.88
1012.43	-1.32
1012.60	-1.58
1012.76	-0.35
1012.93	-2.89
1013.10	-2.68
1013.26	2.42
1013.43	1.69
1013.59	2.22
1013.76	2.14
1013.92	0.97
1014.09	0.19
1014.25	0.97
1014.42	1.47
1014.58	2.23
1014.75	2.25
1014.91	-0.65
1015.08	-2.23
1015.24	-1.64
1015.41	-0.26
1015.57	2.05
1015.73	5.57
1015.90	7.99
1016.06	7.95
1016.23	9.85
1016.39	9.64
1016.56	8.53
1016.72	7.80
1016.89	8.69
1017.05	11.02
1017.22	9.40
1017.38	11.80
1017.55	8.94
1017.71	6.40
1017.88	7.04
1018.04	6.42
1018.21	4.64
1018.37	9.90
1018.53	13.63
1018.70	13.05
1018.86	10.84
1019.03	10.85
1019.19	9.42
1019.36	10.07
1019.52	11.04
1019.69	12.06
1019.85	12.68
1020.01	10.48
1020.18	8.34
1020.34	6.46
1020.51	2.92
1020.67	2.79
1020.84	4.45
1021.00	3.28
1021.16	4.38
1021.33	4.13
1021.49	3.31
1021.66	2.23
1021.82	6.63
1021.98	5.59
1022.15	7.41
1022.31	8.47
1022.48	5.66
1022.64	4.88
1022.80	5.90
1022.97	1.47
1023.13	2.90
1023.30	3.15
1023.46	5.34
1023.62	4.75
1023.79	5.10
1023.95	6.50
1024.12	7.39
1024.28	10.76
1024.44	13.27
1024.61	11.32
1024.77	11.80
1024.93	9.59
1025.10	11.58
1025.26	9.35
1025.43	9.42
1025.59	8.15
1025.75	5.44
1025.92	7.54
1026.08	7.65
1026.24	4.49
1026.41	5.12
1026.57	8.43
1026.73	7.35
1026.90	5.27
1027.06	3.93
1027.23	-2.14
1027.39	-3.67
1027.55	-3.00
1027.72	-2.77
1027.88	-0.93
1028.04	-1.36
1028.21	-1.08
1028.37	-4.95
1028.53	-1.28
1028.70	-2.63
1028.86	-4.73
1029.02	0.67
1029.19	2.16
1029.35	4.21
1029.51	1.92
1029.67	2.55
1029.84	4.82
1030.00	3.87
1030.16	6.93
1030.33	4.58
1030.49	5.14
1030.65	8.30
1030.82	8.06
1030.98	9.98
1031.14	6.13
1031.31	3.91
1031.47	2.01
1031.63	0.61
1031.79	1.17
1031.96	2.90
1032.12	0.71
1032.28	2.36
1032.45	4.95
1032.61	6.11
1032.77	3.89
1032.93	5.57
1033.10	7.09
1033.26	5.38
1033.42	6.81
1033.58	8.04
1033.75	3.72
1033.91	2.55
1034.07	2.61
1034.24	-0.09
1034.40	-1.56
1034.56	0.43
1034.72	0.54
1034.89	-1.08
1035.05	-0.15
1035.21	-1.12
1035.37	-2.74
1035.54	-1.95
1035.70	1.30
1035.86	1.17
1036.02	2.07
1036.19	3.93
1036.35	3.57
1036.51	4.80
1036.67	7.43
1036.83	8.42
1037.00	4.06
1037.16	4.13
1037.32	4.24
1037.48	4.54
1037.65	2.09
1037.81	1.28
1037.97	1.97
1038.13	1.06
1038.29	1.12
1038.46	2.09
1038.62	0.97
1038.78	5.23
1038.94	3.87
1039.10	5.44
1039.27	4.65
1039.43	5.06
1039.59	2.72
1039.75	1.60
1039.91	2.70
1040.08	-0.58
1040.24	-3.46
1040.40	-5.08
1040.56	-3.24
1040.72	-2.20
1040.89	-1.73
1041.05	-2.40
1041.21	-1.95
1041.37	0.35
1041.53	-0.35
1041.69	-1.40
1041.86	-1.79
1042.02	-3.03
1042.18	-0.35
1042.34	-2.40
1042.50	-2.07
1042.66	-2.14
1042.83	-2.29
1042.99	-2.33
1043.15	-2.53
1043.31	-1.62
1043.47	-3.69
1043.63	-1.90
1043.79	-0.13
1043.96	-3.63
1044.12	-2.09
1044.28	-0.30
1044.44	-1.08
1044.60	-0.43
1044.76	-1.92
1044.92	-1.43
1045.09	-3.63
1045.25	-2.12
1045.41	0.69
1045.57	2.90
1045.73	1.99
1045.89	1.56
1046.05	0.48
1046.21	24.99
1046.38	14.54
1046.54	-29.29
1046.70	14.13
1046.86	12.49
>>>>>End Processed Spectral Data<<<<<
