SpectraSuite Data File
++++++++++++++++++++++++++++++++++++
Date: Mon May 06 13:51:51 CDT 2013
User: Students
Dark Spectrum Present: Yes
Reference Spectrum Present: Yes
Number of Sampled Component Spectra: 1
Spectrometers: USB4H00887
Integration Time (usec): 100000 (USB4H00887)
Spectra Averaged: 10 (USB4H00887)
Boxcar Smoothing: 5 (USB4H00887)
Correct for Electrical Dark: No (USB4H00887)
Strobe/Lamp Enabled: No (USB4H00887)
Correct for Detector Non-linearity: No (USB4H00887)
Correct for Stray Light: No (USB4H00887)
Number of Pixels in Processed Spectrum: 3648
>>>>>Begin Processed Spectral Data<<<<<
345.83	4.30
346.05	4.30
346.26	4.30
346.48	-6.14
346.70	-3.89
346.92	-5.79
347.14	-6.91
347.35	-7.04
347.57	-9.40
347.79	-9.89
348.01	-9.27
348.23	-6.31
348.44	-7.17
348.66	-7.07
348.88	-4.52
349.10	-3.76
349.32	-1.95
349.53	-1.84
349.75	-2.74
349.97	2.83
350.19	5.83
350.41	7.02
350.62	5.46
350.84	6.68
351.06	6.89
351.28	7.50
351.50	5.73
351.71	4.26
351.93	2.66
352.15	4.65
352.37	2.57
352.58	2.36
352.80	3.46
353.02	6.09
353.24	7.02
353.46	6.87
353.67	4.43
353.89	6.76
354.11	9.07
354.33	12.01
354.54	10.17
354.76	9.87
354.98	9.79
355.20	5.92
355.41	3.13
355.63	2.14
355.85	2.98
356.07	3.70
356.28	3.11
356.50	2.85
356.72	2.83
356.94	3.46
357.15	4.11
357.37	2.74
357.59	8.81
357.81	5.40
358.02	3.18
358.24	4.69
358.46	6.39
358.68	6.14
358.89	6.16
359.11	4.54
359.33	6.46
359.55	3.87
359.76	2.12
359.98	-1.73
360.20	3.33
360.42	5.77
360.63	2.74
360.85	0.97
361.07	0.19
361.29	-1.40
361.50	-0.76
361.72	-4.26
361.94	-4.67
362.15	-2.89
362.37	-2.33
362.59	-2.64
362.81	-5.77
363.02	-2.40
363.24	-0.88
363.46	-0.99
363.68	-3.15
363.89	-3.46
364.11	-1.97
364.33	0.76
364.54	-0.19
364.76	-1.86
364.98	-1.81
365.20	-0.07
365.41	-1.95
365.63	-2.61
365.85	-1.82
366.06	0.86
366.28	0.58
366.50	1.68
366.71	1.06
366.93	1.66
367.15	3.50
367.37	3.09
367.58	6.18
367.80	7.39
368.02	8.47
368.23	8.21
368.45	7.89
368.67	10.50
368.88	8.97
369.10	8.01
369.32	8.14
369.53	6.61
369.75	8.01
369.97	3.80
370.19	3.89
370.40	2.16
370.62	5.79
370.84	6.09
371.05	5.23
371.27	5.05
371.49	6.03
371.70	6.98
371.92	7.35
372.14	5.34
372.35	10.39
372.57	11.04
372.79	10.97
373.00	7.93
373.22	8.69
373.44	7.39
373.65	7.52
373.87	5.42
374.09	2.22
374.30	1.28
374.52	-1.04
374.74	-3.26
374.95	-4.56
375.17	-4.62
375.39	-5.96
375.60	-8.71
375.82	-8.88
376.04	-5.83
376.25	-5.03
376.47	-0.65
376.68	0.50
376.90	2.36
377.12	1.12
377.33	-1.15
377.55	-0.02
377.77	1.30
377.98	3.26
378.20	7.04
378.42	5.92
378.63	6.18
378.85	7.17
379.07	8.73
379.28	6.52
379.50	6.85
379.71	9.72
379.93	10.78
380.15	11.17
380.36	9.35
380.58	6.16
380.80	4.58
381.01	4.00
381.23	2.23
381.44	0.80
381.66	5.64
381.88	6.72
382.09	5.08
382.31	3.28
382.53	1.69
382.74	4.82
382.96	6.40
383.17	7.75
383.39	5.88
383.61	4.36
383.82	2.22
384.04	-0.35
384.25	0.80
384.47	1.14
384.69	-1.49
384.90	1.45
385.12	-0.88
385.33	-1.69
385.55	-0.48
385.77	1.79
385.98	2.31
386.20	2.55
386.41	2.66
386.63	1.32
386.85	2.79
387.06	3.91
387.28	2.59
387.49	2.77
387.71	1.45
387.93	-4.17
388.14	-1.79
388.36	-2.48
388.57	1.56
388.79	0.35
389.01	-2.57
389.22	-3.97
389.44	-1.34
389.65	-0.47
389.87	1.10
390.08	1.82
390.30	5.64
390.52	0.48
390.73	0.56
390.95	-2.27
391.16	-4.56
391.38	-4.97
391.59	-4.86
391.81	-3.97
392.03	-7.73
392.24	-9.16
392.46	-7.30
392.67	-7.22
392.89	-3.95
393.10	-5.18
393.32	-6.55
393.53	-3.46
393.75	0.19
393.97	2.57
394.18	1.30
394.40	5.03
394.61	7.48
394.83	3.56
395.04	4.17
395.26	4.77
395.47	3.61
395.69	6.16
395.91	6.72
396.12	4.88
396.34	4.04
396.55	4.56
396.77	4.49
396.98	2.35
397.20	3.31
397.41	3.09
397.63	1.10
397.84	1.45
398.06	-1.68
398.27	-0.20
398.49	-0.82
398.71	-3.18
398.92	-3.87
399.14	-5.34
399.35	-6.20
399.57	-8.71
399.78	-11.23
400.00	-8.56
400.21	-8.08
400.43	-6.05
400.64	-6.87
400.86	-6.05
401.07	-3.35
401.29	-3.78
401.50	-3.30
401.72	-4.10
401.93	0.63
402.15	1.38
402.36	0.13
402.58	3.56
402.79	2.79
403.01	0.65
403.22	3.70
403.44	2.25
403.65	3.59
403.87	7.06
404.08	11.67
404.30	10.85
404.51	12.92
404.73	12.44
404.94	11.10
405.16	12.96
405.37	16.46
405.59	14.34
405.80	13.18
406.02	13.09
406.23	9.51
406.45	3.80
406.66	4.15
406.88	1.41
407.09	0.15
407.31	1.25
407.52	-0.84
407.74	-2.49
407.95	-1.90
408.17	-0.17
408.38	0.56
408.60	1.58
408.81	5.59
409.03	4.54
409.24	5.79
409.45	8.97
409.67	6.52
409.88	11.32
410.10	8.66
410.31	6.78
410.53	5.40
410.74	0.09
410.96	-0.71
411.17	-3.63
411.39	-5.79
411.60	-5.05
411.82	-6.59
412.03	-3.76
412.24	-8.62
412.46	-7.06
412.67	-8.69
412.89	-10.07
413.10	-6.72
413.32	-6.22
413.53	-6.35
413.75	-5.59
413.96	-7.48
414.17	-6.27
414.39	-7.30
414.60	-6.09
414.82	-5.14
415.03	-1.81
415.25	2.68
415.46	4.65
415.68	4.86
415.89	10.11
416.10	11.51
416.32	13.74
416.53	13.03
416.75	13.48
416.96	11.60
417.18	10.31
417.39	11.80
417.60	11.00
417.82	7.24
418.03	6.44
418.25	3.30
418.46	6.83
418.67	6.57
418.89	7.86
419.10	6.16
419.32	7.93
419.53	7.71
419.75	5.12
419.96	2.20
420.17	2.14
420.39	3.85
420.60	2.44
420.82	0.47
421.03	-0.41
421.24	-6.78
421.46	-9.83
421.67	-8.36
421.89	-6.91
422.10	-7.63
422.31	-6.48
422.53	-5.42
422.74	-4.64
422.96	-1.92
423.17	-4.21
423.38	-5.32
423.60	-1.99
423.81	1.60
424.03	2.09
424.24	1.86
424.45	0.34
424.67	0.09
424.88	3.26
425.09	1.10
425.31	-3.97
425.52	-3.33
425.74	-3.13
425.95	-0.61
426.16	-0.71
426.38	-5.55
426.59	-4.47
426.80	-3.00
427.02	-3.61
427.23	-4.80
427.45	-3.02
427.66	1.62
427.87	0.99
428.09	5.12
428.30	4.58
428.51	8.01
428.73	9.68
428.94	8.01
429.15	6.87
429.37	9.03
429.58	8.06
429.79	6.55
430.01	4.90
430.22	5.16
430.44	1.25
430.65	-1.94
430.86	-4.21
431.08	-3.37
431.29	-2.74
431.50	-0.50
431.72	-0.67
431.93	1.04
432.14	1.84
432.36	1.27
432.57	2.31
432.78	2.77
433.00	2.42
433.21	4.43
433.42	6.65
433.64	9.38
433.85	11.38
434.06	11.17
434.28	8.53
434.49	8.06
434.70	8.51
434.92	10.41
435.13	10.89
435.34	14.56
435.56	10.33
435.77	8.08
435.98	5.32
436.20	3.57
436.41	1.99
436.62	0.02
436.83	-1.56
437.05	-1.04
437.26	-3.54
437.47	-4.32
437.69	-5.19
437.90	-2.20
438.11	0.11
438.33	-1.92
438.54	-1.41
438.75	-2.74
438.97	0.15
439.18	1.34
439.39	1.25
439.60	3.00
439.82	4.97
440.03	4.39
440.24	1.45
440.46	-1.28
440.67	0.22
440.88	-0.24
441.10	3.26
441.31	2.35
441.52	1.25
441.73	1.12
441.95	-1.41
442.16	-2.38
442.37	-6.78
442.58	-3.41
442.80	-2.79
443.01	-1.10
443.22	-2.09
443.44	-3.11
443.65	-1.10
443.86	2.12
444.07	2.33
444.29	2.03
444.50	-0.63
444.71	6.33
444.92	2.81
445.14	2.31
445.35	1.06
445.56	1.64
445.78	-0.88
445.99	-4.58
446.20	-7.88
446.41	-7.48
446.63	-4.19
446.84	-3.39
447.05	-7.35
447.26	-6.13
447.48	-4.67
447.69	-5.70
447.90	-5.27
448.11	-2.85
448.33	-0.43
448.54	1.47
448.75	-0.48
448.96	-4.10
449.18	-1.68
449.39	1.62
449.60	3.15
449.81	1.68
450.03	2.85
450.24	1.84
450.45	3.37
450.66	2.25
450.87	1.41
451.09	0.19
451.30	0.20
451.51	-0.63
451.72	-1.10
451.94	-5.51
452.15	-5.23
452.36	-7.65
452.57	-9.77
452.78	-12.29
453.00	-10.44
453.21	-12.25
453.42	-9.74
453.63	-6.24
453.85	-6.52
454.06	-6.57
454.27	-5.06
454.48	-4.73
454.69	-3.44
454.91	-0.73
455.12	-0.20
455.33	-2.03
455.54	1.38
455.75	3.98
455.97	1.02
456.18	3.76
456.39	1.21
456.60	2.79
456.81	4.08
457.03	6.24
457.24	5.90
457.45	6.39
457.66	8.38
457.87	6.96
458.09	5.05
458.30	5.46
458.51	1.32
458.72	0.93
458.93	0.37
459.15	0.39
459.36	0.22
459.57	3.84
459.78	2.35
459.99	-0.26
460.20	-0.35
460.42	1.32
460.63	5.85
460.84	7.93
461.05	9.63
461.26	9.87
461.47	11.60
461.69	13.05
461.90	10.04
462.11	10.39
462.32	12.60
462.53	12.21
462.74	11.62
462.96	11.39
463.17	13.22
463.38	11.26
463.59	9.22
463.80	7.24
464.01	6.80
464.23	8.56
464.44	9.25
464.65	8.19
464.86	9.83
465.07	9.85
465.28	8.66
465.49	9.10
465.71	13.24
465.92	15.69
466.13	14.39
466.34	13.09
466.55	10.46
466.76	12.40
466.97	13.07
467.19	11.19
467.40	10.56
467.61	9.31
467.82	9.10
468.03	8.47
468.24	7.69
468.45	13.26
468.66	14.34
468.88	14.19
469.09	12.92
469.30	14.75
469.51	16.25
469.72	12.86
469.93	12.86
470.14	13.26
470.35	11.84
470.57	11.95
470.78	8.51
470.99	6.52
471.20	6.48
471.41	2.85
471.62	4.49
471.83	4.08
472.04	5.88
472.25	5.55
472.47	0.80
472.68	3.31
472.89	4.92
473.10	5.59
473.31	6.20
473.52	10.48
473.73	15.15
473.94	14.04
474.15	14.30
474.36	14.93
474.57	14.26
474.79	18.62
475.00	16.64
475.21	17.13
475.42	15.75
475.63	15.27
475.84	14.37
476.05	14.48
476.26	11.28
476.47	12.27
476.68	13.05
476.89	17.33
477.10	18.47
477.32	20.81
477.53	20.18
477.74	18.62
477.95	21.69
478.16	21.28
478.37	21.13
478.58	21.93
478.79	21.19
479.00	22.23
479.21	17.22
479.42	17.71
479.63	16.42
479.84	19.06
480.05	21.19
480.26	23.85
480.47	23.25
480.69	23.10
480.90	26.47
481.11	27.57
481.32	27.00
481.53	30.96
481.74	29.32
481.95	28.84
482.16	24.87
482.37	27.09
482.58	27.24
482.79	30.51
483.00	35.90
483.21	37.05
483.42	41.67
483.63	44.83
483.84	43.27
484.05	44.48
484.26	45.26
484.47	53.28
484.68	54.81
484.89	53.27
485.10	51.74
485.31	49.06
485.52	48.57
485.73	45.30
485.94	42.52
486.15	44.87
486.37	46.73
486.58	47.57
486.79	42.60
487.00	41.78
487.21	43.79
487.42	47.21
487.63	48.76
487.84	50.16
488.05	50.72
488.26	55.95
488.47	55.41
488.68	54.31
488.89	57.73
489.10	61.64
489.31	62.91
489.52	59.93
489.73	59.95
489.94	60.45
490.15	61.77
490.36	66.56
490.57	64.10
490.78	67.45
490.99	66.34
491.20	64.81
491.41	63.15
491.62	61.48
491.83	63.38
492.04	62.44
492.25	60.97
492.45	61.92
492.66	58.22
492.87	59.48
493.08	60.23
493.29	63.39
493.50	62.76
493.71	67.71
493.92	72.05
494.13	73.32
494.34	74.83
494.55	75.96
494.76	77.08
494.97	77.41
495.18	79.44
495.39	78.12
495.60	78.85
495.81	82.98
496.02	80.54
496.23	77.56
496.44	81.96
496.65	81.83
496.86	85.12
497.07	83.71
497.28	86.55
497.49	85.36
497.70	89.40
497.91	90.00
498.12	89.61
498.32	91.51
498.53	98.19
498.74	97.69
498.95	99.01
499.16	99.64
499.37	100.70
499.58	101.39
499.79	98.56
500.00	95.31
500.21	95.34
500.42	97.26
500.63	96.11
500.84	93.65
501.05	94.67
501.26	94.78
501.46	97.41
501.67	97.87
501.88	97.87
502.09	105.58
502.30	107.15
502.51	109.83
502.72	110.12
502.93	111.13
503.14	111.89
503.35	110.18
503.56	110.72
503.77	109.53
503.97	112.08
504.18	113.66
504.39	111.95
504.60	115.11
504.81	117.53
505.02	119.86
505.23	117.96
505.44	118.84
505.65	119.49
505.86	120.51
506.07	119.10
506.27	119.51
506.48	120.79
506.69	123.57
506.90	124.27
507.11	123.19
507.32	126.51
507.53	130.36
507.74	130.70
507.95	134.05
508.15	138.50
508.36	142.02
508.57	144.51
508.78	145.03
508.99	148.25
509.20	147.51
509.41	149.13
509.62	145.80
509.82	147.77
510.03	148.27
510.24	149.11
510.45	148.89
510.66	150.80
510.87	150.10
511.08	153.04
511.29	151.64
511.49	155.09
511.70	158.21
511.91	165.98
512.12	170.47
512.33	172.98
512.54	173.00
512.75	174.06
512.95	177.04
513.16	178.79
513.37	179.05
513.58	181.69
513.79	183.63
514.00	184.22
514.20	182.79
514.41	181.26
514.62	185.21
514.83	187.11
515.04	189.18
515.25	189.53
515.46	195.49
515.66	196.42
515.87	201.71
516.08	204.57
516.29	210.57
516.50	211.33
516.71	214.68
516.91	218.69
517.12	223.43
517.33	224.25
517.54	227.81
517.75	226.02
517.95	231.79
518.16	230.81
518.37	232.74
518.58	228.59
518.79	230.88
519.00	233.04
519.20	233.43
519.41	231.81
519.62	235.81
519.83	236.93
520.04	238.87
520.24	239.59
520.45	243.48
520.66	246.50
520.87	250.58
521.08	251.30
521.28	254.64
521.49	254.56
521.70	264.56
521.91	269.48
522.12	273.03
522.32	275.81
522.53	279.40
522.74	278.52
522.95	278.77
523.16	281.86
523.36	284.33
523.57	282.75
523.78	286.79
523.99	283.96
524.20	284.48
524.40	285.23
524.61	288.47
524.82	290.05
525.03	294.72
525.23	298.95
525.44	302.78
525.65	308.95
525.86	315.91
526.06	322.93
526.27	327.41
526.48	330.73
526.69	331.25
526.90	331.49
527.10	335.35
527.31	338.05
527.52	342.96
527.73	342.96
527.93	344.13
528.14	345.92
528.35	343.87
528.56	347.00
528.76	348.29
528.97	353.93
529.18	359.53
529.39	360.24
529.59	364.02
529.80	361.15
530.01	363.44
530.22	368.54
530.42	371.26
530.63	373.88
530.84	374.65
531.05	377.48
531.25	378.58
531.46	378.84
531.67	381.16
531.88	381.03
532.08	382.64
532.29	390.51
532.50	392.69
532.70	396.93
532.91	397.49
533.12	400.19
533.33	400.64
533.53	403.64
533.74	405.18
533.95	408.85
534.15	412.42
534.36	419.01
534.57	417.69
534.78	417.23
534.98	417.30
535.19	422.55
535.40	425.90
535.60	428.12
535.81	430.91
536.02	435.62
536.23	438.79
536.43	442.66
536.64	443.52
536.85	445.43
537.05	450.07
537.26	453.18
537.47	456.47
537.67	458.35
537.88	461.74
538.09	465.30
538.30	468.28
538.50	469.32
538.71	469.66
538.92	476.56
539.12	480.53
539.33	484.07
539.54	486.58
539.74	488.70
539.95	493.26
540.16	499.61
540.36	502.70
540.57	507.84
540.78	511.17
540.98	514.21
541.19	516.00
541.40	518.15
541.60	520.41
541.81	522.73
542.02	525.99
542.22	527.85
542.43	528.36
542.64	527.89
542.84	531.93
543.05	537.01
543.26	539.01
543.46	541.32
543.67	546.86
543.88	547.76
544.08	553.47
544.29	553.71
544.50	557.40
544.70	562.48
544.91	571.18
545.12	576.07
545.32	579.37
545.53	586.20
545.74	592.07
545.94	595.46
546.15	599.83
546.35	603.85
546.56	608.45
546.77	613.39
546.97	617.59
547.18	618.97
547.39	619.60
547.59	622.73
547.80	624.30
548.01	626.81
548.21	629.02
548.42	636.01
548.62	639.19
548.83	645.11
549.04	647.57
549.24	651.70
549.45	654.92
549.65	657.53
549.86	664.01
550.07	668.92
550.27	671.08
550.48	673.78
550.69	674.17
550.89	676.05
551.10	678.79
551.30	680.58
551.51	681.88
551.72	688.32
551.92	692.44
552.13	693.13
552.33	696.68
552.54	699.29
552.75	704.61
552.95	708.67
553.16	712.99
553.36	717.66
553.57	724.44
553.78	729.71
553.98	729.99
554.19	736.62
554.39	737.31
554.60	741.23
554.80	742.95
555.01	745.05
555.22	748.90
555.42	751.72
555.63	750.86
555.83	753.43
556.04	760.73
556.25	765.14
556.45	765.61
556.66	774.71
556.86	777.43
557.07	780.37
557.27	785.75
557.48	789.27
557.68	792.56
557.89	796.79
558.10	802.26
558.30	801.54
558.51	803.33
558.71	805.22
558.92	806.77
559.12	808.18
559.33	813.71
559.54	813.71
559.74	816.17
559.95	816.49
560.15	818.03
560.36	818.52
560.56	820.23
560.77	823.26
560.97	824.98
561.18	826.75
561.38	828.40
561.59	831.38
561.79	831.25
562.00	830.64
562.21	832.69
562.41	839.46
562.62	840.91
562.82	841.23
563.03	841.06
563.23	842.55
563.44	836.65
563.64	835.37
563.85	833.02
564.05	834.23
564.26	831.61
564.46	830.10
564.67	827.77
564.87	822.02
565.08	817.38
565.28	813.43
565.49	808.07
565.69	809.97
565.90	809.95
566.10	806.40
566.31	806.47
566.51	807.01
566.72	810.34
566.92	805.37
567.13	805.60
567.33	805.35
567.54	805.00
567.74	806.96
567.95	802.64
568.15	798.26
568.36	798.56
568.56	794.07
568.77	787.44
568.97	780.31
569.18	777.48
569.38	773.02
569.59	767.41
569.79	761.77
570.00	756.87
570.20	752.87
570.41	749.11
570.61	741.74
570.82	738.42
571.02	739.17
571.23	731.52
571.43	727.92
571.64	721.63
571.84	717.83
572.05	712.08
572.25	708.82
572.45	704.37
572.66	702.49
572.86	697.98
573.07	690.65
573.27	682.18
573.48	678.99
573.68	669.43
573.89	663.73
574.09	656.88
574.30	654.96
574.50	647.85
574.70	642.00
574.91	634.65
575.11	632.17
575.32	623.38
575.52	619.73
575.73	614.78
575.93	614.04
576.14	607.28
576.34	605.62
576.54	598.30
576.75	590.30
576.95	583.15
577.16	577.86
577.36	569.43
577.57	568.18
577.77	561.52
577.97	558.13
578.18	547.37
578.38	545.41
578.59	536.61
578.79	530.85
579.00	527.37
579.20	523.14
579.40	517.97
579.61	513.20
579.81	504.06
580.02	496.56
580.22	488.98
580.42	487.81
580.63	478.74
580.83	471.41
581.04	468.04
581.24	465.48
581.45	458.52
581.65	450.01
581.85	441.39
582.06	437.33
582.26	432.29
582.47	427.86
582.67	419.28
582.87	415.77
583.08	414.45
583.28	409.65
583.48	398.81
583.69	394.25
583.89	391.50
584.10	386.71
584.30	382.02
584.50	378.13
584.71	368.56
584.91	365.19
585.12	363.37
585.32	357.05
585.52	351.19
585.73	349.89
585.93	342.89
586.13	336.44
586.34	334.75
586.54	329.95
586.75	324.16
586.95	322.33
587.15	317.42
587.36	312.28
587.56	307.08
587.76	300.03
587.97	294.35
588.17	293.31
588.37	290.07
588.58	285.52
588.78	282.58
588.98	281.74
589.19	278.36
589.39	278.11
589.60	268.92
589.80	269.20
590.00	270.03
590.21	264.06
590.41	261.38
590.61	258.19
590.82	253.80
591.02	253.02
591.22	248.87
591.43	247.77
591.63	241.59
591.83	244.71
592.04	237.47
592.24	231.79
592.44	229.00
592.65	225.39
592.85	222.60
593.05	220.47
593.26	212.41
593.46	209.99
593.66	202.84
593.86	201.02
594.07	198.28
594.27	199.16
594.47	211.22
594.68	211.70
594.88	207.53
595.08	205.00
595.29	200.89
595.49	202.21
595.69	195.34
595.90	197.22
596.10	195.93
596.30	191.62
596.50	186.83
596.71	169.94
596.91	166.65
597.11	167.32
597.32	165.42
597.52	162.91
597.72	161.25
597.93	161.34
598.13	157.95
598.33	156.56
598.53	154.90
598.74	155.07
598.94	155.20
599.14	153.00
599.35	150.88
599.55	150.45
599.75	153.45
599.95	150.73
600.16	149.59
600.36	147.34
600.56	143.21
600.76	141.01
600.97	142.33
601.17	137.62
601.37	136.77
601.58	135.39
601.78	129.95
601.98	127.33
602.18	127.90
602.39	127.16
602.59	125.24
602.79	124.20
602.99	121.20
603.20	115.52
603.40	115.84
603.60	113.83
603.80	113.18
604.01	116.21
604.21	113.35
604.41	110.53
604.61	109.38
604.82	110.09
605.02	110.42
605.22	110.09
605.42	108.93
605.62	110.18
605.83	107.05
606.03	103.89
606.23	101.99
606.43	100.52
606.64	97.99
606.84	102.04
607.04	97.84
607.24	97.02
607.45	97.48
607.65	97.43
607.85	93.22
608.05	97.71
608.25	102.14
608.46	99.70
608.66	101.88
608.86	106.51
609.06	101.30
609.26	107.41
609.47	107.78
609.67	108.97
609.87	107.89
610.07	109.27
610.28	109.23
610.48	105.19
610.68	109.90
610.88	108.21
611.08	103.78
611.29	104.19
611.49	97.24
611.69	94.30
611.89	94.80
612.09	94.65
612.29	92.79
612.50	90.63
612.70	91.95
612.90	90.82
613.10	90.46
613.30	91.12
613.51	90.84
613.71	91.82
613.91	89.31
614.11	86.16
614.31	85.51
614.51	87.80
614.72	86.59
614.92	86.00
615.12	81.62
615.32	83.91
615.52	82.64
615.72	82.01
615.93	82.29
616.13	84.32
616.33	85.53
616.53	84.75
616.73	83.28
616.93	82.03
617.14	80.67
617.34	82.31
617.54	79.70
617.74	79.13
617.94	78.88
618.14	78.92
618.34	77.56
618.55	76.33
618.75	76.58
618.95	75.09
619.15	75.05
619.35	76.20
619.55	74.64
619.75	76.71
619.96	78.03
620.16	78.83
620.36	79.01
620.56	78.88
620.76	77.56
620.96	77.39
621.16	76.85
621.36	76.76
621.57	75.55
621.77	77.23
621.97	73.39
622.17	69.85
622.37	69.78
622.57	69.78
622.77	70.93
622.97	67.43
623.18	66.71
623.38	67.04
623.58	69.63
623.78	68.72
623.98	67.40
624.18	68.36
624.38	73.24
624.58	73.32
624.78	75.09
624.98	76.54
625.19	81.01
625.39	82.18
625.59	82.89
625.79	81.84
625.99	82.10
626.19	81.97
626.39	79.00
626.59	74.16
626.79	71.98
626.99	70.73
627.19	69.91
627.40	71.75
627.60	71.29
627.80	70.67
628.00	68.12
628.20	67.81
628.40	70.64
628.60	72.05
628.80	73.43
629.00	74.01
629.20	70.04
629.40	67.23
629.60	65.98
629.80	65.48
630.00	68.94
630.20	69.02
630.41	73.08
630.61	67.30
630.81	66.88
631.01	71.72
631.21	72.16
631.41	75.07
631.61	78.90
631.81	75.94
632.01	78.47
632.21	76.95
632.41	77.64
632.61	73.93
632.81	75.79
633.01	78.31
633.21	72.57
633.41	70.64
633.61	71.88
633.81	69.98
634.01	73.54
634.21	72.65
634.41	71.01
634.61	72.52
634.81	71.77
635.01	72.81
635.22	72.29
635.42	71.73
635.62	74.45
635.82	75.74
636.02	77.25
636.22	76.43
636.42	74.96
636.62	74.25
636.82	74.43
637.02	72.11
637.22	70.60
637.42	69.63
637.62	73.30
637.82	67.84
638.02	65.94
638.22	65.11
638.42	64.94
638.62	63.73
638.82	64.57
639.02	65.22
639.22	68.76
639.42	69.93
639.62	68.83
639.82	66.50
640.02	71.27
640.22	69.93
640.42	66.97
640.62	66.30
640.82	68.72
641.02	68.79
641.22	67.42
641.42	67.47
641.61	69.93
641.81	73.37
642.01	75.96
642.21	75.66
642.41	74.45
642.61	78.03
642.81	77.52
643.01	78.88
643.21	78.75
643.41	79.11
643.61	79.48
643.81	77.45
644.01	74.66
644.21	73.75
644.41	72.16
644.61	72.78
644.81	70.21
645.01	70.73
645.21	67.58
645.41	65.39
645.61	67.34
645.81	68.16
646.01	66.75
646.21	66.97
646.40	68.01
646.60	69.74
646.80	71.94
647.00	74.51
647.20	72.18
647.40	73.21
647.60	76.76
647.80	69.41
648.00	69.37
648.20	71.79
648.40	71.83
648.60	67.68
648.80	66.43
649.00	66.45
649.20	65.33
649.39	68.03
649.59	67.97
649.79	66.69
649.99	71.59
650.19	71.36
650.39	73.13
650.59	73.28
650.79	75.63
650.99	75.81
651.19	73.88
651.39	74.06
651.58	75.01
651.78	75.01
651.98	74.02
652.18	72.91
652.38	72.39
652.58	69.87
652.78	70.08
652.98	69.98
653.18	69.72
653.38	68.23
653.57	69.72
653.77	69.91
653.97	70.10
654.17	68.36
654.37	68.83
654.57	66.93
654.77	64.92
654.97	66.82
655.16	66.80
655.36	69.24
655.56	70.04
655.76	67.79
655.96	65.09
656.16	62.03
656.36	61.76
656.56	62.72
656.75	64.36
656.95	64.66
657.15	66.32
657.35	63.88
657.55	60.94
657.75	60.92
657.95	59.34
658.14	59.60
658.34	61.53
658.54	65.05
658.74	65.14
658.94	64.46
659.14	64.60
659.34	64.08
659.53	66.34
659.73	69.82
659.93	70.62
660.13	75.61
660.33	77.19
660.53	78.59
660.72	73.78
660.92	73.71
661.12	72.24
661.32	73.93
661.52	71.49
661.72	71.29
661.91	70.32
662.11	71.12
662.31	66.67
662.51	67.60
662.71	68.14
662.90	70.90
663.10	71.70
663.30	71.81
663.50	71.06
663.70	69.28
663.90	68.51
664.09	68.66
664.29	67.96
664.49	71.81
664.69	71.25
664.89	65.48
665.08	66.80
665.28	61.94
665.48	62.82
665.68	63.04
665.88	61.49
666.07	61.59
666.27	58.66
666.47	58.24
666.67	57.16
666.87	59.86
667.06	66.06
667.26	66.06
667.46	66.30
667.66	67.55
667.85	66.19
668.05	69.52
668.25	69.18
668.45	71.23
668.65	75.09
668.84	75.33
669.04	71.83
669.24	73.58
669.44	72.81
669.63	75.51
669.83	74.02
670.03	73.78
670.23	72.00
670.42	72.41
670.62	68.94
670.82	67.64
671.02	64.72
671.22	65.37
671.41	59.60
671.61	60.42
671.81	60.97
672.01	62.63
672.20	62.31
672.40	63.34
672.60	66.56
672.80	70.80
672.99	71.87
673.19	73.73
673.39	73.06
673.58	77.25
673.78	75.79
673.98	76.11
674.18	76.05
674.37	78.83
674.57	77.80
674.77	77.84
674.97	72.22
675.16	70.52
675.36	69.76
675.56	68.42
675.75	65.29
675.95	65.00
676.15	64.23
676.35	64.66
676.54	62.24
676.74	62.61
676.94	59.09
677.13	65.67
677.33	63.92
677.53	63.60
677.73	63.08
677.92	66.02
678.12	66.47
678.32	66.84
678.51	65.26
678.71	69.18
678.91	70.58
679.11	72.50
679.30	72.00
679.50	74.81
679.70	73.76
679.89	72.74
680.09	69.30
680.29	70.73
680.48	70.88
680.68	72.39
680.88	69.85
681.07	68.25
681.27	69.04
681.47	68.51
681.66	65.81
681.86	68.77
682.06	72.33
682.25	74.88
682.45	72.94
682.65	72.13
682.84	69.13
683.04	68.44
683.24	69.89
683.43	69.54
683.63	66.60
683.83	68.14
684.02	64.81
684.22	62.76
684.42	59.86
684.61	61.22
684.81	61.22
685.01	60.42
685.20	59.63
685.40	58.96
685.60	56.78
685.79	59.37
685.99	58.09
686.19	58.39
686.38	60.23
686.58	64.51
686.77	65.76
686.97	65.42
687.17	64.79
687.36	64.85
687.56	65.31
687.76	63.58
687.95	62.30
688.15	65.09
688.34	66.15
688.54	64.83
688.74	61.59
688.93	59.93
689.13	59.97
689.33	62.72
689.52	62.74
689.72	63.64
689.91	63.69
690.11	63.06
690.31	63.65
690.50	64.75
690.70	65.83
690.89	66.60
691.09	66.30
691.29	68.83
691.48	69.69
691.68	72.14
691.87	71.42
692.07	74.29
692.27	75.22
692.46	73.04
692.66	73.52
692.85	72.27
693.05	73.17
693.25	72.89
693.44	70.86
693.64	70.69
693.83	68.90
694.03	66.19
694.22	64.70
694.42	66.80
694.62	63.82
694.81	62.09
695.01	61.83
695.20	60.88
695.40	59.24
695.59	61.18
695.79	58.89
695.99	60.02
696.18	59.06
696.38	60.30
696.57	60.14
696.77	62.20
696.96	57.12
697.16	57.47
697.36	58.87
697.55	59.93
697.75	60.34
697.94	60.23
698.14	57.73
698.33	59.06
698.53	59.71
698.72	60.08
698.92	62.43
699.11	68.07
699.31	69.22
699.51	69.13
699.70	70.12
699.90	70.79
700.09	71.90
700.29	73.35
700.48	72.81
700.68	71.98
700.87	70.71
701.07	69.05
701.26	69.71
701.46	68.22
701.65	66.00
701.85	67.17
702.04	61.66
702.24	61.83
702.43	60.12
702.63	63.71
702.82	63.95
703.02	62.26
703.21	62.44
703.41	58.11
703.60	58.83
703.80	58.96
703.99	57.66
704.19	60.43
704.38	59.48
704.58	59.17
704.77	55.84
704.97	56.75
705.16	59.47
705.36	57.19
705.55	59.80
705.75	60.23
705.94	59.26
706.14	61.74
706.33	59.69
706.53	59.99
706.72	62.91
706.92	65.50
707.11	63.73
707.31	57.83
707.50	59.65
707.70	60.06
707.89	57.86
708.09	60.62
708.28	60.21
708.48	60.01
708.67	60.17
708.86	60.34
709.06	61.03
709.25	61.94
709.45	63.10
709.64	62.17
709.84	63.32
710.03	61.98
710.23	60.51
710.42	57.98
710.62	55.91
710.81	56.23
711.00	54.77
711.20	55.82
711.39	55.72
711.59	57.60
711.78	56.97
711.98	55.98
712.17	60.08
712.37	60.92
712.56	61.94
712.75	64.29
712.95	60.82
713.14	61.55
713.34	59.43
713.53	57.66
713.73	59.35
713.92	61.57
714.11	61.72
714.31	60.32
714.50	62.44
714.70	64.86
714.89	68.42
715.08	69.37
715.28	67.14
715.47	66.54
715.67	67.90
715.86	65.14
716.06	65.07
716.25	63.34
716.44	63.32
716.64	61.61
716.83	61.16
717.03	59.11
717.22	62.80
717.41	66.86
717.61	66.19
717.80	63.84
717.99	66.65
718.19	62.41
718.38	67.36
718.58	67.68
718.77	65.03
718.96	61.57
719.16	62.11
719.35	59.58
719.55	57.40
719.74	58.01
719.93	58.14
720.13	54.96
720.32	54.22
720.51	50.40
720.71	51.01
720.90	53.15
721.10	53.88
721.29	51.03
721.48	52.65
721.68	52.22
721.87	54.27
722.06	55.63
722.26	57.34
722.45	59.93
722.64	57.55
722.84	56.36
723.03	54.16
723.22	54.23
723.42	54.83
723.61	53.69
723.80	53.34
724.00	49.99
724.19	51.09
724.38	51.59
724.58	53.56
724.77	56.86
724.96	56.78
725.16	57.51
725.35	58.57
725.54	59.43
725.74	59.58
725.93	60.42
726.12	62.44
726.32	62.20
726.51	64.68
726.70	63.17
726.90	61.29
727.09	62.33
727.28	60.95
727.48	58.14
727.67	59.02
727.86	62.00
728.06	62.84
728.25	62.03
728.44	62.89
728.64	56.69
728.83	58.37
729.02	58.44
729.21	56.37
729.41	59.00
729.60	60.68
729.79	62.85
729.99	60.64
730.18	58.44
730.37	61.98
730.56	60.86
730.76	64.92
730.95	62.82
731.14	62.46
731.34	62.63
731.53	63.04
731.72	62.35
731.91	59.60
732.11	58.50
732.30	59.84
732.49	55.61
732.69	56.58
732.88	53.15
733.07	53.73
733.26	53.17
733.46	50.36
733.65	50.04
733.84	49.41
734.03	48.83
734.23	49.10
734.42	44.29
734.61	42.69
734.80	40.23
735.00	42.93
735.19	42.26
735.38	42.23
735.57	45.26
735.77	44.14
735.96	43.90
736.15	43.36
736.34	41.72
736.54	45.95
736.73	49.67
736.92	50.68
737.11	51.12
737.31	51.78
737.50	43.12
737.69	45.28
737.88	46.02
738.07	45.41
738.27	47.79
738.46	50.75
738.65	52.02
738.84	47.59
739.04	46.64
739.23	44.01
739.42	41.46
739.61	54.57
739.80	53.02
740.00	51.66
740.19	53.01
740.38	50.60
740.57	48.22
740.76	48.59
740.96	53.28
741.15	52.07
741.34	53.27
741.53	55.59
741.72	52.17
741.92	49.90
742.11	52.35
742.30	51.01
742.49	51.11
742.68	51.61
742.88	50.04
743.07	47.89
743.26	49.75
743.45	52.43
743.64	56.11
743.84	58.01
744.03	57.92
744.22	56.47
744.41	58.33
744.60	54.49
744.79	54.29
744.99	52.95
745.18	51.14
745.37	52.48
745.56	52.19
745.75	49.65
745.94	47.89
746.14	50.81
746.33	49.82
746.52	50.19
746.71	51.65
746.90	54.10
747.09	52.76
747.28	52.69
747.48	53.77
747.67	51.55
747.86	48.57
748.05	46.84
748.24	43.62
748.43	41.29
748.62	39.88
748.82	41.87
749.01	40.61
749.20	42.02
749.39	42.63
749.58	39.75
749.77	38.78
749.96	39.88
750.16	40.33
750.35	42.08
750.54	46.04
750.73	46.08
750.92	48.80
751.11	47.46
751.30	45.52
751.49	45.33
751.68	42.52
751.88	42.02
752.07	43.44
752.26	43.44
752.45	43.19
752.64	42.88
752.83	42.37
753.02	39.69
753.21	39.94
753.40	41.91
753.60	43.16
753.79	43.73
753.98	43.49
754.17	40.62
754.36	43.36
754.55	43.71
754.74	41.26
754.93	43.27
755.12	42.60
755.31	41.09
755.50	38.19
755.70	39.71
755.89	43.94
756.08	42.78
756.27	42.62
756.46	41.56
756.65	40.70
756.84	41.80
757.03	41.16
757.22	42.75
757.41	44.24
757.60	48.63
757.79	44.91
757.98	42.71
758.17	44.65
758.36	44.20
758.56	43.36
758.75	43.44
758.94	41.72
759.13	41.93
759.32	39.30
759.51	37.83
759.70	33.07
759.89	33.85
760.08	33.07
760.27	32.38
760.46	32.23
760.65	30.92
760.84	30.74
761.03	30.37
761.22	29.62
761.41	29.66
761.60	30.11
761.79	33.33
761.98	33.87
762.17	36.36
762.36	37.09
762.55	39.94
762.74	39.69
762.93	42.11
763.12	45.35
763.31	44.12
763.50	50.16
763.69	52.06
763.88	52.71
764.07	52.99
764.26	48.76
764.45	46.45
764.64	45.63
764.83	47.62
765.02	46.79
765.21	46.21
765.40	47.14
765.59	40.88
765.78	40.46
765.97	38.93
766.16	35.43
766.35	38.26
766.54	41.02
766.73	39.41
766.92	38.73
767.11	37.92
767.30	36.81
767.49	36.49
767.68	38.19
767.87	35.54
768.06	36.14
768.25	40.48
768.44	38.71
768.63	37.63
768.82	38.15
769.01	40.70
769.20	41.59
769.39	41.41
769.58	43.77
769.77	45.67
769.96	47.55
770.15	48.76
770.34	47.29
770.53	45.35
770.72	45.86
770.91	45.48
771.10	41.80
771.29	40.83
771.47	39.86
771.66	39.45
771.85	37.35
772.04	35.28
772.23	35.41
772.42	33.57
772.61	37.37
772.80	35.52
772.99	36.32
773.18	35.56
773.37	35.73
773.56	34.76
773.75	34.44
773.94	34.18
774.13	35.36
774.31	34.46
774.50	36.30
774.69	32.40
774.88	31.41
775.07	34.31
775.26	39.32
775.45	37.29
775.64	39.02
775.83	38.99
776.02	41.09
776.21	42.78
776.40	44.48
776.58	42.43
776.77	46.02
776.96	46.92
777.15	45.26
777.34	39.04
777.53	39.08
777.72	37.03
777.91	34.63
778.10	30.20
778.28	27.89
778.47	24.43
778.66	27.13
778.85	28.37
779.04	26.77
779.23	23.38
779.42	24.45
779.61	25.75
779.79	29.53
779.98	31.35
780.17	32.71
780.36	34.07
780.55	35.39
780.74	34.28
780.93	32.15
781.12	33.70
781.30	35.75
781.49	36.62
781.68	36.40
781.87	36.40
782.06	34.76
782.25	38.84
782.44	35.06
782.62	34.07
782.81	32.30
783.00	31.54
783.19	33.07
783.38	37.35
783.57	37.35
783.75	34.70
783.94	32.21
784.13	30.98
784.32	25.62
784.51	29.68
784.70	31.43
784.88	31.93
785.07	31.69
785.26	33.23
785.45	26.90
785.64	28.36
785.83	29.40
786.01	30.07
786.20	31.13
786.39	35.47
786.58	35.69
786.77	34.98
786.95	35.58
787.14	38.05
787.33	37.76
787.52	39.13
787.71	38.17
787.90	41.18
788.08	42.62
788.27	41.61
788.46	39.66
788.65	38.59
788.84	38.73
789.02	36.32
789.21	34.61
789.40	33.03
789.59	33.72
789.77	35.41
789.96	33.07
790.15	32.34
790.34	33.46
790.53	32.43
790.71	30.40
790.90	28.95
791.09	32.82
791.28	32.58
791.46	31.37
791.65	29.03
791.84	28.36
792.03	27.44
792.22	25.58
792.40	27.14
792.59	28.73
792.78	31.28
792.97	34.29
793.15	34.70
793.34	31.07
793.53	30.79
793.72	34.67
793.90	32.56
794.09	34.50
794.28	33.47
794.47	32.06
794.65	28.21
794.84	27.01
795.03	24.91
795.22	23.48
795.40	28.47
795.59	30.24
795.78	28.30
795.97	30.79
796.15	31.17
796.34	28.45
796.53	30.35
796.71	30.92
796.90	32.80
797.09	32.66
797.28	32.32
797.46	33.34
797.65	30.22
797.84	30.09
798.02	27.05
798.21	26.79
798.40	30.79
798.59	29.84
798.77	32.26
798.96	28.95
799.15	27.55
799.33	28.24
799.52	27.13
799.71	28.28
799.90	26.40
800.08	27.82
800.27	27.44
800.46	28.80
800.64	28.62
800.83	29.01
801.02	31.02
801.20	33.23
801.39	35.43
801.58	36.34
801.76	37.50
801.95	37.98
802.14	36.23
802.32	35.50
802.51	34.65
802.70	32.43
802.88	32.56
803.07	33.29
803.26	32.12
803.44	28.80
803.63	27.37
803.82	25.17
804.00	27.31
804.19	28.00
804.38	29.71
804.56	27.33
804.75	31.87
804.94	27.11
805.12	27.11
805.31	26.27
805.50	27.55
805.68	25.10
805.87	28.13
806.06	26.29
806.24	26.57
806.43	25.86
806.62	29.90
806.80	25.69
806.99	29.92
807.17	28.24
807.36	29.92
807.55	32.66
807.73	34.29
807.92	30.89
808.11	33.57
808.29	32.15
808.48	30.92
808.66	28.67
808.85	29.84
809.04	29.36
809.22	31.93
809.41	31.33
809.59	26.62
809.78	26.08
809.97	28.09
810.15	23.83
810.34	25.73
810.53	23.59
810.71	25.34
810.90	25.43
811.08	25.00
811.27	21.17
811.45	22.64
811.64	23.55
811.83	25.12
812.01	21.99
812.20	26.94
812.38	27.70
812.57	29.71
812.76	29.81
812.94	28.15
813.13	28.73
813.31	31.22
813.50	30.22
813.68	31.11
813.87	32.32
814.06	38.05
814.24	33.85
814.43	32.90
814.61	35.45
814.80	34.42
814.98	34.46
815.17	34.91
815.36	31.97
815.54	30.31
815.73	30.48
815.91	27.41
816.10	25.97
816.28	27.50
816.47	27.16
816.65	24.48
816.84	24.78
817.03	23.76
817.21	23.27
817.40	23.31
817.58	20.22
817.77	17.33
817.95	16.55
818.14	19.27
818.32	18.47
818.51	18.54
818.69	16.87
818.88	13.27
819.06	16.25
819.25	12.12
819.43	15.29
819.62	19.20
819.80	18.19
819.99	17.37
820.18	11.10
820.36	11.54
820.55	13.29
820.73	16.14
820.92	19.51
821.10	16.51
821.29	19.16
821.47	16.77
821.66	15.94
821.84	20.39
822.03	20.72
822.21	24.61
822.40	24.63
822.58	20.54
822.77	23.01
822.95	22.30
823.14	23.74
823.32	25.62
823.50	24.97
823.69	24.63
823.87	21.13
824.06	22.66
824.24	21.37
824.43	21.63
824.61	25.64
824.80	18.25
824.98	15.25
825.17	18.04
825.35	15.92
825.54	16.79
825.72	18.67
825.91	22.06
826.09	23.01
826.28	24.48
826.46	22.58
826.64	20.33
826.83	24.31
827.01	26.49
827.20	22.75
827.38	24.52
827.57	22.36
827.75	19.06
827.94	14.47
828.12	11.97
828.31	9.61
828.49	12.57
828.67	13.01
828.86	14.88
829.04	14.86
829.23	15.96
829.41	17.09
829.60	20.11
829.78	24.18
829.96	28.30
830.15	30.05
830.33	30.76
830.52	30.57
830.70	26.87
830.88	26.03
831.07	27.42
831.25	26.01
831.44	24.72
831.62	24.48
831.81	22.73
831.99	21.06
832.17	20.80
832.36	19.20
832.54	18.92
832.73	21.52
832.91	18.80
833.09	19.12
833.28	17.18
833.46	17.85
833.65	18.52
833.83	15.64
834.01	14.91
834.20	15.08
834.38	18.58
834.56	18.13
834.75	19.92
834.93	20.42
835.12	19.05
835.30	21.56
835.48	16.94
835.67	18.17
835.85	19.96
836.03	20.01
836.22	17.22
836.40	15.88
836.59	15.34
836.77	13.76
836.95	15.97
837.14	14.69
837.32	16.27
837.50	20.95
837.69	17.95
837.87	18.13
838.05	17.37
838.24	17.89
838.42	15.77
838.60	14.15
838.79	14.63
838.97	12.47
839.15	11.34
839.34	6.18
839.52	4.21
839.70	3.46
839.89	3.80
840.07	4.93
840.25	6.26
840.44	7.28
840.62	8.30
840.80	8.51
840.99	7.50
841.17	9.03
841.35	13.83
841.54	14.28
841.72	14.88
841.90	12.59
842.09	12.14
842.27	12.31
842.45	13.39
842.64	15.12
842.82	13.44
843.00	15.27
843.19	14.65
843.37	12.66
843.55	8.75
843.73	7.06
843.92	8.17
844.10	6.37
844.28	4.77
844.47	3.84
844.65	-0.26
844.83	2.16
845.01	-0.78
845.20	0.54
845.38	-0.24
845.56	3.11
845.75	3.74
845.93	7.35
846.11	7.47
846.29	7.58
846.48	8.08
846.66	10.63
846.84	8.97
847.02	11.75
847.21	10.65
847.39	13.26
847.57	13.67
847.76	16.64
847.94	13.74
848.12	13.81
848.30	15.88
848.49	14.89
848.67	17.05
848.85	17.46
849.03	15.34
849.22	15.23
849.40	12.85
849.58	13.91
849.76	10.87
849.95	8.90
850.13	9.55
850.31	10.71
850.49	13.09
850.67	12.21
850.86	14.78
851.04	15.47
851.22	16.85
851.40	19.59
851.59	20.61
851.77	23.68
851.95	25.93
852.13	24.99
852.31	23.72
852.50	22.83
852.68	22.01
852.86	18.10
853.04	18.39
853.23	17.26
853.41	15.83
853.59	21.95
853.77	19.96
853.95	17.82
854.14	19.72
854.32	18.66
854.50	16.94
854.68	16.53
854.86	17.59
855.04	19.25
855.23	19.08
855.41	19.18
855.59	11.02
855.77	14.58
855.95	16.96
856.14	15.27
856.32	14.63
856.50	13.81
856.68	12.34
856.86	14.54
857.04	11.69
857.23	11.69
857.41	13.67
857.59	10.76
857.77	8.94
857.95	5.92
858.13	8.19
858.32	10.37
858.50	10.67
858.68	12.55
858.86	12.73
859.04	12.51
859.22	13.00
859.41	10.98
859.59	13.03
859.77	11.32
859.95	15.15
860.13	16.48
860.31	16.09
860.49	17.91
860.68	18.51
860.86	17.54
861.04	19.85
861.22	17.59
861.40	17.95
861.58	18.95
861.76	19.05
861.94	17.05
862.13	16.74
862.31	14.58
862.49	16.68
862.67	14.99
862.85	14.08
863.03	14.00
863.21	13.00
863.39	13.18
863.57	10.61
863.76	14.32
863.94	15.58
864.12	13.37
864.30	15.90
864.48	12.92
864.66	14.78
864.84	12.66
865.02	12.88
865.20	15.29
865.38	13.61
865.57	15.88
865.75	11.82
865.93	8.66
866.11	7.21
866.29	5.94
866.47	7.13
866.65	6.33
866.83	9.22
867.01	6.40
867.19	5.64
867.37	4.88
867.55	2.98
867.73	4.08
867.92	7.97
868.10	11.95
868.28	11.67
868.46	8.23
868.64	6.29
868.82	4.65
869.00	4.56
869.18	5.27
869.36	6.20
869.54	7.84
869.72	9.03
869.90	5.47
870.08	2.77
870.26	2.83
870.44	1.30
870.62	5.34
870.80	8.58
870.98	9.50
871.16	11.84
871.34	11.32
871.53	10.20
871.71	7.02
871.89	9.81
872.07	10.28
872.25	10.33
872.43	12.77
872.61	7.35
872.79	3.72
872.97	5.06
873.15	3.05
873.33	5.32
873.51	5.34
873.69	6.40
873.87	6.03
874.05	7.30
874.23	8.45
874.41	7.93
874.59	10.82
874.77	9.81
874.95	6.11
875.13	6.46
875.31	3.72
875.49	4.10
875.67	2.42
875.85	1.19
876.03	0.60
876.21	-2.07
876.39	-0.67
876.57	0.82
876.75	1.21
876.93	6.20
877.11	7.24
877.29	10.11
877.47	14.35
877.65	15.53
877.82	16.66
878.00	15.88
878.18	19.06
878.36	21.19
878.54	16.91
878.72	16.44
878.90	14.45
879.08	16.50
879.26	11.97
879.44	3.02
879.62	7.37
879.80	6.98
879.98	8.43
880.16	9.42
880.34	7.11
880.52	8.36
880.70	8.06
880.88	9.09
881.06	7.76
881.24	12.75
881.42	15.62
881.59	11.32
881.77	13.40
881.95	12.29
882.13	9.46
882.31	8.30
882.49	9.18
882.67	11.80
882.85	10.05
883.03	9.44
883.21	6.44
883.39	12.05
883.57	12.36
883.75	9.16
883.92	9.81
884.10	10.85
884.28	13.13
884.46	11.56
884.64	11.47
884.82	16.01
885.00	15.23
885.18	15.96
885.36	11.67
885.54	11.80
885.71	12.03
885.89	12.53
886.07	13.27
886.25	16.85
886.43	16.01
886.61	14.37
886.79	13.35
886.97	14.26
887.15	12.73
887.32	13.55
887.50	12.14
887.68	12.21
887.86	13.74
888.04	12.19
888.22	9.98
888.40	11.58
888.57	13.57
888.75	10.07
888.93	11.75
889.11	11.73
889.29	11.75
889.47	13.87
889.65	13.07
889.82	11.08
890.00	10.48
890.18	8.94
890.36	9.63
890.54	8.94
890.72	7.34
890.90	5.85
891.07	8.86
891.25	9.42
891.43	8.15
891.61	11.06
891.79	10.78
891.97	11.47
892.14	9.85
892.32	10.13
892.50	9.59
892.68	10.80
892.86	6.74
893.03	6.13
893.21	7.56
893.39	4.41
893.57	1.04
893.75	0.86
893.93	-0.71
894.10	0.54
894.28	0.24
894.46	0.76
894.64	-0.19
894.82	2.74
894.99	3.09
895.17	-0.45
895.35	2.90
895.53	4.86
895.71	1.36
895.88	1.99
896.06	0.22
896.24	0.69
896.42	2.01
896.59	3.48
896.77	5.94
896.95	5.25
897.13	5.42
897.31	6.85
897.48	7.54
897.66	13.09
897.84	14.11
898.02	13.85
898.19	12.55
898.37	8.90
898.55	11.47
898.73	10.15
898.91	8.02
899.08	5.18
899.26	4.82
899.44	5.47
899.62	2.79
899.79	2.01
899.97	4.28
900.15	3.52
900.33	5.40
900.50	3.35
900.68	2.64
900.86	6.50
901.04	13.57
901.21	13.93
901.39	11.21
901.57	11.36
901.74	12.62
901.92	12.64
902.10	14.21
902.28	13.03
902.45	12.70
902.63	10.18
902.81	10.85
902.99	8.01
903.16	7.93
903.34	9.38
903.52	11.45
903.69	10.63
903.87	9.63
904.05	7.95
904.22	9.63
904.40	11.67
904.58	13.27
904.76	10.80
904.93	9.89
905.11	8.64
905.29	7.19
905.46	6.03
905.64	7.45
905.82	7.30
905.99	8.82
906.17	8.43
906.35	8.94
906.53	9.33
906.70	8.01
906.88	11.30
907.06	12.57
907.23	13.89
907.41	11.26
907.59	10.80
907.76	11.08
907.94	12.12
908.12	11.39
908.29	9.92
908.47	9.53
908.65	8.82
908.82	4.67
909.00	0.76
909.18	-0.09
909.35	-0.13
909.53	-2.83
909.71	-7.86
909.88	-10.20
910.06	-5.53
910.23	-5.03
910.41	-4.45
910.59	-3.30
910.76	-1.79
910.94	4.08
911.12	3.98
911.29	6.74
911.47	6.89
911.65	12.06
911.82	11.10
912.00	4.67
912.17	5.53
912.35	4.32
912.53	4.10
912.70	5.01
912.88	1.55
913.06	4.00
913.23	2.29
913.41	2.51
913.58	5.14
913.76	8.53
913.94	13.70
914.11	12.60
914.29	11.43
914.46	13.91
914.64	14.30
914.82	15.02
914.99	14.17
915.17	15.51
915.34	17.84
915.52	14.26
915.70	12.18
915.87	8.81
916.05	7.97
916.22	11.75
916.40	11.99
916.57	10.35
916.75	8.77
916.93	9.81
917.10	7.56
917.28	6.72
917.45	8.84
917.63	9.36
917.80	7.09
917.98	5.85
918.16	5.38
918.33	3.59
918.51	5.51
918.68	7.13
918.86	5.27
919.03	5.14
919.21	5.46
919.39	7.54
919.56	8.58
919.74	11.67
919.91	13.44
920.09	11.39
920.26	10.59
920.44	6.18
920.61	1.64
920.79	1.10
920.96	0.76
921.14	0.13
921.31	-7.19
921.49	-8.14
921.67	-9.10
921.84	-9.23
922.02	-5.47
922.19	-4.58
922.37	-2.72
922.54	1.15
922.72	0.99
922.89	4.23
923.07	4.06
923.24	7.41
923.42	5.75
923.59	6.35
923.77	8.45
923.94	4.19
924.12	0.56
924.29	1.95
924.47	3.20
924.64	6.18
924.82	8.51
924.99	9.40
925.17	8.64
925.34	11.32
925.52	11.30
925.69	7.54
925.87	7.86
926.04	12.68
926.22	13.61
926.39	12.03
926.57	8.92
926.74	6.94
926.91	5.88
927.09	5.86
927.26	6.42
927.44	4.47
927.61	3.37
927.79	5.27
927.96	2.55
928.14	1.86
928.31	4.28
928.49	5.49
928.66	4.90
928.84	5.10
929.01	6.24
929.18	3.54
929.36	6.87
929.53	9.51
929.71	5.68
929.88	6.50
930.06	4.41
930.23	1.94
930.41	1.15
930.58	0.20
930.75	0.61
930.93	0.93
931.10	1.79
931.28	-0.34
931.45	0.20
931.63	1.68
931.80	3.17
931.97	5.68
932.15	7.26
932.32	8.17
932.50	7.37
932.67	6.98
932.84	5.68
933.02	8.71
933.19	11.41
933.37	8.84
933.54	9.10
933.71	9.36
933.89	8.92
934.06	9.51
934.24	10.24
934.41	11.80
934.58	11.45
934.76	15.04
934.93	13.09
935.11	10.76
935.28	11.97
935.45	11.93
935.63	11.65
935.80	10.09
935.98	9.57
936.15	8.82
936.32	6.72
936.50	7.63
936.67	4.60
936.84	3.76
937.02	3.07
937.19	2.77
937.36	1.79
937.54	-1.14
937.71	0.78
937.89	-0.71
938.06	-1.73
938.23	-1.19
938.41	-1.30
938.58	1.75
938.75	1.38
938.93	3.35
939.10	0.56
939.27	1.60
939.45	4.54
939.62	2.55
939.79	4.23
939.97	2.20
940.14	2.81
940.31	0.04
940.49	-3.17
940.66	-1.97
940.83	-1.40
941.01	2.46
941.18	0.73
941.35	-0.63
941.53	3.67
941.70	3.95
941.87	3.70
942.05	4.02
942.22	5.44
942.39	6.94
942.57	5.64
942.74	3.97
942.91	3.03
943.08	4.34
943.26	5.81
943.43	1.64
943.60	1.41
943.78	6.26
943.95	5.32
944.12	5.36
944.29	3.89
944.47	2.25
944.64	1.95
944.81	3.24
944.99	3.07
945.16	-0.56
945.33	-2.36
945.50	-3.17
945.68	-5.98
945.85	-7.19
946.02	-8.42
946.20	-7.86
946.37	-6.65
946.54	-5.29
946.71	-8.19
946.89	-6.26
947.06	-0.19
947.23	2.94
947.40	4.39
947.58	6.59
947.75	8.94
947.92	11.36
948.09	9.94
948.27	9.53
948.44	6.50
948.61	8.27
948.78	6.85
948.96	1.53
949.13	2.03
949.30	2.94
949.47	-2.01
949.65	-3.30
949.82	-4.41
949.99	-1.53
950.16	-2.38
950.33	-2.40
950.51	-4.06
950.68	-4.19
950.85	-2.07
951.02	-1.62
951.20	-4.67
951.37	-2.87
951.54	-3.82
951.71	-3.59
951.88	-4.19
952.06	-1.28
952.23	1.23
952.40	5.40
952.57	7.43
952.74	6.91
952.92	5.44
953.09	7.34
953.26	4.58
953.43	5.16
953.60	4.75
953.77	4.28
953.95	4.77
954.12	2.96
954.29	1.95
954.46	-0.48
954.63	0.04
954.81	0.39
954.98	-0.61
955.15	1.99
955.32	4.67
955.49	4.06
955.66	3.35
955.84	3.31
956.01	4.51
956.18	4.49
956.35	5.14
956.52	4.56
956.69	0.54
956.87	0.71
957.04	3.44
957.21	2.72
957.38	4.38
957.55	4.15
957.72	3.13
957.89	4.17
958.07	2.03
958.24	0.76
958.41	-2.22
958.58	0.52
958.75	-1.68
958.92	-5.36
959.09	-5.44
959.26	-5.44
959.44	-2.22
959.61	-2.64
959.78	-3.89
959.95	-3.85
960.12	-3.80
960.29	0.28
960.46	0.63
960.63	0.95
960.81	1.81
960.98	1.36
961.15	3.07
961.32	-0.97
961.49	-1.86
961.66	-2.40
961.83	-0.34
962.00	-0.78
962.17	-4.28
962.34	-2.14
962.52	0.00
962.69	0.86
962.86	-0.74
963.03	-3.98
963.20	0.19
963.37	1.68
963.54	3.35
963.71	4.52
963.88	5.98
964.05	8.10
964.22	7.21
964.39	7.82
964.56	7.30
964.74	7.71
964.91	7.48
965.08	5.62
965.25	6.85
965.42	4.10
965.59	-0.52
965.76	-0.47
965.93	-0.84
966.10	0.56
966.27	-1.12
966.44	-1.10
966.61	0.54
966.78	-0.04
966.95	1.28
967.12	0.60
967.29	1.73
967.46	2.87
967.63	2.81
967.80	2.51
967.97	2.81
968.14	2.05
968.32	4.26
968.49	4.30
968.66	6.50
968.83	3.76
969.00	5.72
969.17	7.00
969.34	7.50
969.51	6.80
969.68	10.48
969.85	9.16
970.02	9.18
970.19	5.86
970.36	3.85
970.53	3.70
970.70	4.99
970.87	-0.19
971.04	-0.67
971.21	-1.75
971.38	-0.02
971.55	-2.87
971.72	-2.76
971.89	-3.61
972.06	-0.78
972.23	1.55
972.40	1.79
972.57	-0.11
972.74	2.90
972.91	1.08
973.07	2.87
973.24	1.14
973.41	1.41
973.58	-1.66
973.75	-0.28
973.92	-2.90
974.09	-3.74
974.26	-2.92
974.43	-1.75
974.60	-1.92
974.77	-0.47
974.94	1.36
975.11	3.57
975.28	2.14
975.45	2.05
975.62	2.29
975.79	5.19
975.96	6.61
976.13	4.17
976.30	3.82
976.47	2.53
976.64	0.39
976.80	-1.19
976.97	-2.09
977.14	-4.00
977.31	-0.47
977.48	-1.21
977.65	-1.55
977.82	-1.95
977.99	-0.50
978.16	1.04
978.33	0.60
978.50	2.31
978.67	3.52
978.83	4.00
979.00	5.51
979.17	4.13
979.34	5.72
979.51	6.01
979.68	5.19
979.85	6.80
980.02	7.60
980.19	10.22
980.36	10.07
980.52	5.19
980.69	3.30
980.86	4.04
981.03	4.36
981.20	3.22
981.37	4.38
981.54	3.63
981.71	0.84
981.88	-3.89
982.04	-5.70
982.21	-4.90
982.38	-3.02
982.55	-2.64
982.72	0.39
982.89	-2.76
983.06	-3.05
983.22	-3.52
983.39	-4.24
983.56	-2.66
983.73	-1.60
983.90	0.17
984.07	-0.91
984.24	-0.35
984.40	0.73
984.57	-1.94
984.74	1.49
984.91	1.41
985.08	-0.69
985.25	1.40
985.41	-0.39
985.58	0.45
985.75	1.53
985.92	5.72
986.09	2.64
986.26	3.43
986.42	4.65
986.59	5.32
986.76	7.02
986.93	9.40
987.10	6.57
987.27	7.26
987.43	7.45
987.60	4.95
987.77	4.11
987.94	8.36
988.11	7.54
988.27	2.27
988.44	-0.06
988.61	3.46
988.78	1.73
988.95	4.15
989.11	6.37
989.28	5.10
989.45	3.80
989.62	2.55
989.79	5.25
989.95	4.51
990.12	7.65
990.29	8.90
990.46	6.52
990.62	9.48
990.79	8.53
990.96	5.66
991.13	8.32
991.30	10.39
991.46	7.89
991.63	8.58
991.80	8.36
991.97	8.82
992.13	10.78
992.30	8.69
992.47	7.54
992.64	6.11
992.80	7.80
992.97	7.73
993.14	8.32
993.31	12.23
993.47	8.19
993.64	8.14
993.81	10.56
993.98	6.87
994.14	7.60
994.31	3.41
994.48	3.80
994.64	4.51
994.81	2.77
994.98	0.07
995.15	0.22
995.31	0.28
995.48	1.19
995.65	-1.04
995.82	-0.11
995.98	-3.33
996.15	-0.88
996.32	0.63
996.48	0.28
996.65	2.96
996.82	5.75
996.99	2.14
997.15	2.63
997.32	1.71
997.49	3.39
997.65	5.29
997.82	7.84
997.99	7.45
998.15	7.34
998.32	5.59
998.49	3.63
998.65	4.62
998.82	1.36
998.99	2.89
999.15	3.41
999.32	1.36
999.49	0.43
999.65	1.56
999.82	-0.93
999.99	-0.71
1000.15	1.36
1000.32	3.20
1000.49	2.59
1000.65	7.06
1000.82	7.00
1000.99	8.58
1001.15	10.72
1001.32	10.24
1001.49	9.53
1001.65	8.47
1001.82	9.01
1001.99	6.91
1002.15	7.73
1002.32	5.70
1002.49	6.80
1002.65	7.17
1002.82	8.82
1002.99	8.97
1003.15	9.68
1003.32	10.48
1003.48	16.07
1003.65	17.58
1003.82	17.18
1003.98	15.47
1004.15	14.75
1004.32	15.69
1004.48	15.49
1004.65	13.48
1004.81	13.98
1004.98	12.25
1005.15	9.07
1005.31	3.82
1005.48	2.25
1005.64	3.03
1005.81	2.10
1005.98	3.22
1006.14	0.32
1006.31	-1.10
1006.47	0.26
1006.64	-2.05
1006.81	-1.38
1006.97	1.68
1007.14	6.89
1007.30	6.76
1007.47	6.31
1007.63	4.77
1007.80	3.24
1007.97	3.69
1008.13	3.80
1008.30	2.05
1008.46	4.58
1008.63	6.37
1008.79	6.87
1008.96	3.43
1009.13	2.64
1009.29	3.39
1009.46	6.76
1009.62	8.58
1009.79	7.99
1009.95	7.47
1010.12	9.22
1010.28	6.65
1010.45	3.02
1010.62	1.77
1010.78	4.43
1010.95	6.91
1011.11	5.98
1011.28	6.50
1011.44	5.27
1011.61	6.33
1011.77	7.39
1011.94	5.23
1012.10	4.75
1012.27	5.49
1012.43	4.23
1012.60	4.11
1012.76	2.40
1012.93	2.09
1013.10	-1.02
1013.26	0.80
1013.43	2.83
1013.59	3.30
1013.76	1.94
1013.92	2.92
1014.09	4.77
1014.25	4.32
1014.42	3.61
1014.58	2.96
1014.75	3.85
1014.91	3.17
1015.08	4.17
1015.24	3.09
1015.41	1.43
1015.57	2.76
1015.73	3.69
1015.90	5.12
1016.06	5.31
1016.23	7.75
1016.39	7.04
1016.56	7.95
1016.72	6.16
1016.89	4.65
1017.05	3.61
1017.22	3.65
1017.38	4.82
1017.55	2.64
1017.71	-0.13
1017.88	0.61
1018.04	-1.41
1018.21	-0.60
1018.37	0.73
1018.53	2.29
1018.70	3.84
1018.86	2.66
1019.03	2.64
1019.19	3.69
1019.36	6.80
1019.52	6.13
1019.69	5.47
1019.85	5.59
1020.01	4.08
1020.18	3.39
1020.34	7.02
1020.51	2.01
1020.67	3.61
1020.84	8.08
1021.00	6.63
1021.16	5.98
1021.33	8.12
1021.49	8.84
1021.66	10.76
1021.82	13.29
1021.98	10.93
1022.15	10.18
1022.31	16.59
1022.48	13.31
1022.64	9.53
1022.80	8.42
1022.97	8.23
1023.13	8.94
1023.30	7.54
1023.46	7.50
1023.62	7.50
1023.79	9.46
1023.95	10.43
1024.12	10.33
1024.28	12.16
1024.44	12.86
1024.61	15.34
1024.77	13.31
1024.93	10.87
1025.10	13.26
1025.26	10.54
1025.43	9.85
1025.59	8.36
1025.75	6.14
1025.92	4.34
1026.08	5.21
1026.24	4.11
1026.41	2.05
1026.57	3.65
1026.73	4.15
1026.90	3.63
1027.06	0.71
1027.23	-2.42
1027.39	-1.53
1027.55	-2.53
1027.72	-3.93
1027.88	-0.91
1028.04	-3.17
1028.21	-2.53
1028.37	-2.74
1028.53	0.97
1028.70	-0.39
1028.86	0.78
1029.02	0.89
1029.19	0.35
1029.35	1.73
1029.51	1.08
1029.67	-1.15
1029.84	-1.17
1030.00	-3.82
1030.16	-3.80
1030.33	-6.01
1030.49	-5.29
1030.65	-4.93
1030.82	-4.00
1030.98	-2.83
1031.14	-4.30
1031.31	-2.07
1031.47	-2.92
1031.63	-1.30
1031.79	2.44
1031.96	2.74
1032.12	1.10
1032.28	2.51
1032.45	3.70
1032.61	4.90
1032.77	2.48
1032.93	5.46
1033.10	2.31
1033.26	1.41
1033.42	2.36
1033.58	2.94
1033.75	2.98
1033.91	-0.80
1034.07	-0.93
1034.24	-1.56
1034.40	-2.36
1034.56	0.69
1034.72	-0.89
1034.89	1.84
1035.05	4.34
1035.21	1.82
1035.37	0.20
1035.54	-0.67
1035.70	4.38
1035.86	1.12
1036.02	2.05
1036.19	4.32
1036.35	4.58
1036.51	2.44
1036.67	2.42
1036.83	1.47
1037.00	0.74
1037.16	-2.36
1037.32	-3.65
1037.48	-4.67
1037.65	-3.22
1037.81	-4.78
1037.97	-3.82
1038.13	-6.39
1038.29	-5.46
1038.46	-6.09
1038.62	-7.76
1038.78	-5.68
1038.94	-0.82
1039.10	1.47
1039.27	1.79
1039.43	3.09
1039.59	2.05
1039.75	0.19
1039.91	2.20
1040.08	1.02
1040.24	-0.80
1040.40	2.51
1040.56	5.38
1040.72	5.59
1040.89	5.83
1041.05	5.27
1041.21	5.94
1041.37	7.30
1041.53	7.69
1041.69	6.83
1041.86	6.83
1042.02	5.55
1042.18	4.32
1042.34	2.14
1042.50	0.60
1042.66	-0.17
1042.83	0.73
1042.99	-0.30
1043.15	1.32
1043.31	-0.13
1043.47	-0.50
1043.63	0.22
1043.79	3.17
1043.96	0.30
1044.12	0.63
1044.28	-0.65
1044.44	-2.92
1044.60	-1.40
1044.76	-2.33
1044.92	-3.33
1045.09	-1.94
1045.25	-2.20
1045.41	0.86
1045.57	2.53
1045.73	2.70
1045.89	2.70
1046.05	2.27
1046.21	19.87
1046.38	24.37
1046.54	-19.25
1046.70	6.14
1046.86	-4.10
>>>>>End Processed Spectral Data<<<<<
